X = 0.734
Y = 0.25
Z = 0.016
mu = 0.601142
Radius,Density,Temp,Mass,Lum,OptD,Kff,KH,Kes,PP,CNO,3a,Deg,Gas,Rad,TotPres
0,0,0,0,0,0,-nan,0,0.03468,0.000278603,9.4212e-10,1.66123e-58,0,0,0,0
1,132000,7.77874e+06,552920,154.046,49387.8,0.37415,2.39607e+31,0.03468,0.000278603,9.4212e-10,1.66123e-58,3.39475e+15,1.40995e+16,9.23266e+11,1.74952e+16
30001,132000,7.77874e+06,1.49303e+19,4.15966e+15,1.48168e+09,0.37415,2.39607e+31,0.03468,0.000278603,9.4212e-10,1.66123e-58,3.39475e+15,1.40995e+16,9.23265e+11,1.74952e+16
70001,132000,7.77874e+06,1.8966e+20,5.284e+16,3.45719e+09,0.37415,2.39606e+31,0.03468,0.000278603,9.42119e-10,1.66123e-58,3.39475e+15,1.40995e+16,9.23265e+11,1.74952e+16
150001,132000,7.77873e+06,1.86614e+21,5.19912e+17,7.40822e+09,0.374151,2.39604e+31,0.03468,0.000278603,9.4212e-10,1.66123e-58,3.39474e+15,1.40994e+16,9.23261e+11,1.74951e+16
250001,131999,7.77871e+06,8.63944e+21,2.40696e+18,1.2347e+10,0.374153,2.39598e+31,0.03468,0.000278603,9.42119e-10,1.66123e-58,3.39471e+15,1.40993e+16,9.23253e+11,1.7495e+16
350001,131998,7.77868e+06,2.37065e+22,6.60455e+18,1.72858e+10,0.374155,2.3959e+31,0.03468,0.000278603,9.42119e-10,1.66123e-58,3.39467e+15,1.40992e+16,9.2324e+11,1.74948e+16
450001,131997,7.77865e+06,5.03845e+22,1.40367e+19,2.22245e+10,0.374158,2.39579e+31,0.03468,0.000278603,9.42119e-10,1.66123e-58,3.39461e+15,1.4099e+16,9.23224e+11,1.74945e+16
550001,131995,7.77861e+06,9.19906e+22,2.56274e+19,2.71633e+10,0.374162,2.39566e+31,0.03468,0.000278603,9.42119e-10,1.66123e-58,3.39455e+15,1.40987e+16,9.23203e+11,1.74942e+16
650001,131993,7.77855e+06,1.51842e+23,4.23001e+19,3.21021e+10,0.374167,2.3955e+31,0.03468,0.000278603,9.42119e-10,1.66123e-58,3.39446e+15,1.40984e+16,9.23179e+11,1.74938e+16
750001,131991,7.77849e+06,2.33255e+23,6.49782e+19,3.70408e+10,0.374173,2.39531e+31,0.03468,0.000278603,9.42119e-10,1.66123e-58,3.39437e+15,1.40981e+16,9.2315e+11,1.74934e+16
850001,131989,7.77842e+06,3.39546e+23,9.45848e+19,4.19796e+10,0.37418,2.3951e+31,0.03468,0.000278603,9.42119e-10,1.66123e-58,3.39426e+15,1.40977e+16,9.23117e+11,1.74929e+16
950001,131986,7.77835e+06,4.74031e+23,1.32042e+20,4.69183e+10,0.374187,2.39485e+31,0.03468,0.000278603,9.42118e-10,1.66123e-58,3.39414e+15,1.40973e+16,9.2308e+11,1.74923e+16
1.05e+06,131982,7.77826e+06,6.40025e+23,1.78273e+20,5.18571e+10,0.374196,2.39459e+31,0.03468,0.000278603,9.42118e-10,1.66122e-58,3.394e+15,1.40968e+16,9.23039e+11,1.74917e+16
1.15e+06,131979,7.77816e+06,8.40845e+23,2.34199e+20,5.67958e+10,0.374205,2.39429e+31,0.03468,0.000278603,9.42118e-10,1.66122e-58,3.39385e+15,1.40962e+16,9.22994e+11,1.7491e+16
1.25e+06,131975,7.77806e+06,1.0798e+24,3.00741e+20,6.17345e+10,0.374215,2.39397e+31,0.03468,0.000278603,9.42116e-10,1.66122e-58,3.39369e+15,1.40956e+16,9.22944e+11,1.74902e+16
1.35e+06,131971,7.77795e+06,1.36022e+24,3.7882e+20,6.66732e+10,0.374225,2.39362e+31,0.03468,0.000278603,9.42115e-10,1.66121e-58,3.39351e+15,1.4095e+16,9.22891e+11,1.74894e+16
1.45e+06,131967,7.77783e+06,1.6854e+24,4.69355e+20,7.16119e+10,0.374237,2.39324e+31,0.03468,0.000278603,9.42115e-10,1.66121e-58,3.39332e+15,1.40943e+16,9.22833e+11,1.74885e+16
1.55e+06,131962,7.7777e+06,2.05865e+24,5.73267e+20,7.65506e+10,0.37425,2.39284e+31,0.03468,0.000278603,9.42114e-10,1.66121e-58,3.39312e+15,1.40935e+16,9.22772e+11,1.74876e+16
1.65e+06,131957,7.77756e+06,2.48331e+24,6.91472e+20,8.14892e+10,0.374263,2.39241e+31,0.03468,0.000278603,9.42111e-10,1.6612e-58,3.3929e+15,1.40928e+16,9.22706e+11,1.74866e+16
1.75e+06,131952,7.77741e+06,2.96266e+24,8.2489e+20,8.64279e+10,0.374277,2.39195e+31,0.03468,0.000278603,9.4211e-10,1.66119e-58,3.39267e+15,1.40919e+16,9.22636e+11,1.74855e+16
1.85e+06,131946,7.77726e+06,3.50003e+24,9.74437e+20,9.13665e+10,0.374292,2.39147e+31,0.03468,0.000278602,9.42102e-10,1.66116e-58,3.39243e+15,1.4091e+16,9.22562e+11,1.74844e+16
1.95e+06,131940,7.77709e+06,4.09872e+24,1.14103e+21,9.63052e+10,0.374308,2.39096e+31,0.03468,0.000278601,9.42097e-10,1.66114e-58,3.39217e+15,1.40901e+16,9.22484e+11,1.74832e+16
2.05e+06,131934,7.77692e+06,4.76205e+24,1.32558e+21,1.01244e+11,0.374324,2.39042e+31,0.03468,0.000278601,9.42097e-10,1.66114e-58,3.3919e+15,1.40891e+16,9.22402e+11,1.74819e+16
2.15e+06,131927,7.77674e+06,5.49331e+24,1.52901e+21,1.06182e+11,0.374342,2.38986e+31,0.03468,0.000278601,9.42093e-10,1.66113e-58,3.39162e+15,1.40881e+16,9.22316e+11,1.74806e+16
2.25e+06,131920,7.77655e+06,6.29583e+24,1.75222e+21,1.11121e+11,0.37436,2.38927e+31,0.03468,0.000278601,9.42087e-10,1.6611e-58,3.39132e+15,1.4087e+16,9.22225e+11,1.74792e+16
2.35e+06,131913,7.77635e+06,7.17289e+24,1.99613e+21,1.16059e+11,0.374379,2.38866e+31,0.03468,0.0002786,9.42082e-10,1.66109e-58,3.39101e+15,1.40858e+16,9.22131e+11,1.74778e+16
2.45e+06,131905,7.77614e+06,8.12782e+24,2.26166e+21,1.20998e+11,0.374399,2.38801e+31,0.03468,0.000278599,9.42067e-10,1.66103e-58,3.39069e+15,1.40847e+16,9.22032e+11,1.74763e+16
2.55e+06,131897,7.77592e+06,9.16391e+24,2.5497e+21,1.25937e+11,0.37442,2.38734e+31,0.03468,0.000278598,9.42051e-10,1.66096e-58,3.39035e+15,1.40834e+16,9.2193e+11,1.74747e+16
2.65e+06,131889,7.7757e+06,1.02845e+25,2.86117e+21,1.30875e+11,0.374442,2.38665e+31,0.03468,0.000278598,9.42055e-10,1.66098e-58,3.39e+15,1.40821e+16,9.21823e+11,1.74731e+16
2.75e+06,131880,7.77546e+06,1.14928e+25,3.19697e+21,1.35814e+11,0.374464,2.38592e+31,0.03468,0.000278597,9.42047e-10,1.66095e-58,3.38963e+15,1.40808e+16,9.21712e+11,1.74714e+16
2.85e+06,131872,7.77522e+06,1.27922e+25,3.55801e+21,1.40752e+11,0.374488,2.38518e+31,0.03468,0.000278596,9.42036e-10,1.66091e-58,3.38925e+15,1.40794e+16,9.21597e+11,1.74696e+16
2.95e+06,131863,7.77497e+06,1.41859e+25,3.9452e+21,1.4569e+11,0.374512,2.3844e+31,0.03468,0.000278596,9.42029e-10,1.66088e-58,3.38886e+15,1.4078e+16,9.21478e+11,1.74678e+16
3.05e+06,131853,7.77471e+06,1.56773e+25,4.35944e+21,1.50629e+11,0.374537,2.3836e+31,0.03468,0.000278594,9.42008e-10,1.6608e-58,3.38846e+15,1.40765e+16,9.21355e+11,1.74659e+16
3.15e+06,131843,7.77444e+06,1.72697e+25,4.80162e+21,1.55567e+11,0.374562,2.38277e+31,0.03468,0.000278592,9.4198e-10,1.66069e-58,3.38804e+15,1.4075e+16,9.21228e+11,1.74639e+16
3.25e+06,131833,7.77416e+06,1.89664e+25,5.27266e+21,1.60506e+11,0.374589,2.38191e+31,0.03468,0.000278592,9.41988e-10,1.66072e-58,3.38761e+15,1.40734e+16,9.21096e+11,1.74619e+16
3.35e+06,131823,7.77388e+06,2.07705e+25,5.77344e+21,1.65444e+11,0.374617,2.38103e+31,0.03468,0.000278592,9.41978e-10,1.66068e-58,3.38716e+15,1.40718e+16,9.20961e+11,1.74599e+16
3.45e+06,131812,7.77358e+06,2.26855e+25,6.30486e+21,1.70382e+11,0.374645,2.38012e+31,0.03468,0.00027859,9.41962e-10,1.66062e-58,3.3867e+15,1.40701e+16,9.20822e+11,1.74577e+16
3.55e+06,131801,7.77328e+06,2.47147e+25,6.86783e+21,1.7532e+11,0.374674,2.37919e+31,0.03468,0.00027859,9.41953e-10,1.66059e-58,3.38623e+15,1.40684e+16,9.20678e+11,1.74555e+16
3.65e+06,131790,7.77297e+06,2.68613e+25,7.46322e+21,1.80259e+11,0.374704,2.37823e+31,0.03468,0.000278587,9.41925e-10,1.66048e-58,3.38574e+15,1.40666e+16,9.20531e+11,1.74533e+16
3.75e+06,131778,7.77265e+06,2.91285e+25,8.09194e+21,1.85197e+11,0.374735,2.37724e+31,0.03468,0.000278584,9.41886e-10,1.66033e-58,3.38525e+15,1.40648e+16,9.20379e+11,1.74509e+16
3.85e+06,131766,7.77232e+06,3.15198e+25,8.75487e+21,1.90135e+11,0.374767,2.37623e+31,0.03468,0.000278585,9.41898e-10,1.66038e-58,3.38473e+15,1.40629e+16,9.20223e+11,1.74486e+16
3.95e+06,131754,7.77198e+06,3.40383e+25,9.4529e+21,1.95073e+11,0.374799,2.37519e+31,0.03468,0.000278584,9.41885e-10,1.66033e-58,3.38421e+15,1.4061e+16,9.20063e+11,1.74461e+16
4.05e+06,131741,7.77164e+06,3.66874e+25,1.01869e+22,2.00011e+11,0.374832,2.37413e+31,0.03468,0.000278582,9.41865e-10,1.66025e-58,3.38367e+15,1.4059e+16,9.19899e+11,1.74436e+16
4.15e+06,131728,7.77128e+06,3.94703e+25,1.09578e+22,2.04949e+11,0.374867,2.37303e+31,0.03468,0.000278581,9.41853e-10,1.6602e-58,3.38312e+15,1.4057e+16,9.19731e+11,1.7441e+16
4.25e+06,131715,7.77092e+06,4.23903e+25,1.17664e+22,2.09887e+11,0.374902,2.37192e+31,0.03468,0.000278579,9.41819e-10,1.66007e-58,3.38255e+15,1.40549e+16,9.19559e+11,1.74384e+16
4.35e+06,131702,7.77055e+06,4.54508e+25,1.26137e+22,2.14825e+11,0.374937,2.37077e+31,0.03468,0.000278574,9.4177e-10,1.65988e-58,3.38197e+15,1.40528e+16,9.19383e+11,1.74357e+16
4.45e+06,131688,7.77017e+06,4.86548e+25,1.35005e+22,2.19763e+11,0.374974,2.3696e+31,0.03468,0.000278576,9.41785e-10,1.65994e-58,3.38138e+15,1.40506e+16,9.19203e+11,1.74329e+16
4.55e+06,131674,7.76978e+06,5.20058e+25,1.44276e+22,2.24701e+11,0.375012,2.36841e+31,0.03468,0.000278574,9.41769e-10,1.65988e-58,3.38077e+15,1.40484e+16,9.19019e+11,1.74301e+16
4.65e+06,131659,7.76938e+06,5.55071e+25,1.5396e+22,2.29639e+11,0.37505,2.36719e+31,0.03468,0.000278572,9.41744e-10,1.65978e-58,3.38015e+15,1.40462e+16,9.18831e+11,1.74272e+16
4.75e+06,131644,7.76897e+06,5.91617e+25,1.64066e+22,2.34577e+11,0.375089,2.36594e+31,0.03468,0.000278571,9.4173e-10,1.65973e-58,3.37952e+15,1.40439e+16,9.18639e+11,1.74243e+16
4.85e+06,131629,7.76856e+06,6.29732e+25,1.74601e+22,2.39515e+11,0.375129,2.36467e+31,0.03468,0.000278568,9.41689e-10,1.65957e-58,3.37887e+15,1.40415e+16,9.18442e+11,1.74213e+16
4.95e+06,131614,7.76813e+06,6.69446e+25,1.85575e+22,2.44453e+11,0.37517,2.36337e+31,0.03468,0.000278563,9.41631e-10,1.65934e-58,3.37822e+15,1.40391e+16,9.18242e+11,1.74182e+16
5.05e+06,131598,7.7677e+06,7.10792e+25,1.96996e+22,2.49391e+11,0.375212,2.36204e+31,0.03468,0.000278564,9.41649e-10,1.65941e-58,3.37754e+15,1.40366e+16,9.18037e+11,1.74151e+16
5.15e+06,131582,7.76726e+06,7.53804e+25,2.08873e+22,2.54328e+11,0.375254,2.36069e+31,0.03468,0.000278563,9.41631e-10,1.65934e-58,3.37686e+15,1.40341e+16,9.17829e+11,1.74119e+16
5.25e+06,131566,7.76681e+06,7.98514e+25,2.21215e+22,2.59266e+11,0.375298,2.35932e+31,0.03468,0.000278561,9.41601e-10,1.65923e-58,3.37616e+15,1.40316e+16,9.17617e+11,1.74086e+16
5.35e+06,131549,7.76635e+06,8.44954e+25,2.3403e+22,2.64204e+11,0.375342,2.35792e+31,0.03468,0.000278559,9.41585e-10,1.65917e-58,3.37545e+15,1.4029e+16,9.174e+11,1.74053e+16
5.45e+06,131532,7.76589e+06,8.93156e+25,2.47326e+22,2.69141e+11,0.375387,2.35649e+31,0.03468,0.000278555,9.41537e-10,1.65898e-58,3.37472e+15,1.40263e+16,9.17179e+11,1.74019e+16
5.55e+06,131515,7.76541e+06,9.43154e+25,2.61112e+22,2.74079e+11,0.375433,2.35504e+31,0.03468,0.000278549,9.41468e-10,1.65872e-58,3.37398e+15,1.40236e+16,9.16955e+11,1.73985e+16
5.65e+06,131497,7.76493e+06,9.9498e+25,2.75397e+22,2.79016e+11,0.37548,2.35356e+31,0.03468,0.000278551,9.4149e-10,1.6588e-58,3.37323e+15,1.40209e+16,9.16726e+11,1.7395e+16
5.75e+06,131479,7.76443e+06,1.04867e+26,2.90188e+22,2.83954e+11,0.375527,2.35205e+31,0.03468,0.00027855,9.41469e-10,1.65872e-58,3.37246e+15,1.40181e+16,9.16494e+11,1.73914e+16
5.85e+06,131461,7.76393e+06,1.10424e+26,3.05495e+22,2.88891e+11,0.375576,2.35052e+31,0.03468,0.000278547,9.41435e-10,1.65859e-58,3.37169e+15,1.40152e+16,9.16257e+11,1.73878e+16
5.95e+06,131443,7.76342e+06,1.16175e+26,3.21326e+22,2.93828e+11,0.375625,2.34897e+31,0.03468,0.000278545,9.41416e-10,1.65851e-58,3.37089e+15,1.40123e+16,9.16016e+11,1.73841e+16
6.05e+06,131424,7.7629e+06,1.22121e+26,3.3769e+22,2.98766e+11,0.375675,2.34739e+31,0.03468,0.000278541,9.41361e-10,1.6583e-58,3.37009e+15,1.40094e+16,9.15772e+11,1.73804e+16
6.15e+06,131405,7.76238e+06,1.28266e+26,3.54593e+22,3.03703e+11,0.375726,2.34579e+31,0.03468,0.000278534,9.41283e-10,1.658e-58,3.36927e+15,1.40064e+16,9.15523e+11,1.73766e+16
6.25e+06,131385,7.76184e+06,1.34613e+26,3.72046e+22,3.0864e+11,0.375778,2.34416e+31,0.03468,0.000278536,9.41308e-10,1.6581e-58,3.36844e+15,1.40033e+16,9.1527e+11,1.73727e+16
6.35e+06,131365,7.7613e+06,1.41166e+26,3.90055e+22,3.13577e+11,0.375831,2.3425e+31,0.03468,0.000278534,9.41284e-10,1.658e-58,3.36759e+15,1.40003e+16,9.15014e+11,1.73688e+16
6.45e+06,131345,7.76075e+06,1.47927e+26,4.0863e+22,3.18514e+11,0.375884,2.34082e+31,0.03468,0.000278531,9.41245e-10,1.65786e-58,3.36674e+15,1.39971e+16,9.14753e+11,1.73648e+16
6.55e+06,131325,7.76018e+06,1.549e+26,4.27779e+22,3.23452e+11,0.375939,2.33911e+31,0.03468,0.000278529,9.41224e-10,1.65777e-58,3.36587e+15,1.39939e+16,9.14488e+11,1.73607e+16
6.65e+06,131304,7.75961e+06,1.62088e+26,4.47509e+22,3.28389e+11,0.375994,2.33738e+31,0.03468,0.000278525,9.41163e-10,1.65754e-58,3.36498e+15,1.39907e+16,9.1422e+11,1.73566e+16
6.75e+06,131283,7.75903e+06,1.69495e+26,4.6783e+22,3.33326e+11,0.37605,2.33563e+31,0.03468,0.000278517,9.41075e-10,1.6572e-58,3.36408e+15,1.39874e+16,9.13947e+11,1.73524e+16
6.85e+06,131262,7.75845e+06,1.77123e+26,4.88748e+22,3.38262e+11,0.376107,2.33385e+31,0.03468,0.000278519,9.41103e-10,1.65731e-58,3.36317e+15,1.39841e+16,9.1367e+11,1.73482e+16
6.95e+06,131240,7.75785e+06,1.84975e+26,5.10273e+22,3.43199e+11,0.376164,2.33205e+31,0.03468,0.000278517,9.41076e-10,1.6572e-58,3.36225e+15,1.39807e+16,9.1339e+11,1.73439e+16
7.05e+06,131218,7.75725e+06,1.93056e+26,5.32411e+22,3.48136e+11,0.376223,2.33022e+31,0.03468,0.000278514,9.41033e-10,1.65704e-58,3.36131e+15,1.39773e+16,9.13105e+11,1.73395e+16
7.15e+06,131196,7.75663e+06,2.01368e+26,5.55172e+22,3.53073e+11,0.376282,2.32836e+31,0.03468,0.000278512,9.41009e-10,1.65694e-58,3.36036e+15,1.39738e+16,9.12817e+11,1.73351e+16
7.25e+06,131174,7.75601e+06,2.09914e+26,5.78563e+22,3.58009e+11,0.376343,2.32648e+31,0.03468,0.000278506,9.40941e-10,1.65668e-58,3.3594e+15,1.39703e+16,9.12524e+11,1.73306e+16
7.35e+06,131151,7.75538e+06,2.18697e+26,6.02593e+22,3.62946e+11,0.376404,2.32458e+31,0.03468,0.000278497,9.40843e-10,1.65631e-58,3.35843e+15,1.39667e+16,9.12228e+11,1.73261e+16
7.45e+06,131128,7.75474e+06,2.27722e+26,6.27268e+22,3.67883e+11,0.376466,2.32265e+31,0.03468,0.0002785,9.40874e-10,1.65643e-58,3.35744e+15,1.39631e+16,9.11927e+11,1.73214e+16
7.55e+06,131104,7.7541e+06,2.3699e+26,6.52598e+22,3.72819e+11,0.376528,2.3207e+31,0.03468,0.000278498,9.40845e-10,1.65631e-58,3.35644e+15,1.39594e+16,9.11623e+11,1.73168e+16
7.65e+06,131080,7.75344e+06,2.46505e+26,6.78589e+22,3.77756e+11,0.376592,2.31873e+31,0.03468,0.000278494,9.40797e-10,1.65613e-58,3.35542e+15,1.39557e+16,9.11314e+11,1.73121e+16
7.75e+06,131056,7.75278e+06,2.56271e+26,7.0525e+22,3.82692e+11,0.376656,2.31673e+31,0.03468,0.000278492,9.40771e-10,1.65603e-58,3.35439e+15,1.3952e+16,9.11002e+11,1.73073e+16
7.85e+06,131032,7.7521e+06,2.6629e+26,7.32588e+22,3.87628e+11,0.376722,2.3147e+31,0.03468,0.000278486,9.40696e-10,1.65574e-58,3.35335e+15,1.39482e+16,9.10686e+11,1.73024e+16
7.95e+06,131007,7.75142e+06,2.76565e+26,7.60612e+22,3.92564e+11,0.376788,2.31265e+31,0.03468,0.000278476,9.40589e-10,1.65533e-58,3.3523e+15,1.39443e+16,9.10366e+11,1.72975e+16
8.05e+06,130982,7.75073e+06,2.87101e+26,7.89328e+22,3.97501e+11,0.376855,2.31058e+31,0.03468,0.00027848,9.40623e-10,1.65546e-58,3.35123e+15,1.39404e+16,9.10042e+11,1.72925e+16
8.15e+06,130957,7.75003e+06,2.97899e+26,8.18745e+22,4.02437e+11,0.376923,2.30848e+31,0.03468,0.000278477,9.4059e-10,1.65533e-58,3.35015e+15,1.39364e+16,9.09714e+11,1.72875e+16
8.25e+06,130931,7.74933e+06,3.08963e+26,8.4887e+22,4.07373e+11,0.376992,2.30636e+31,0.03468,0.000278473,9.40539e-10,1.65513e-58,3.34906e+15,1.39324e+16,9.09382e+11,1.72824e+16
8.35e+06,130905,7.74861e+06,3.20297e+26,8.79711e+22,4.12309e+11,0.377061,2.30422e+31,0.03468,0.00027847,9.4051e-10,1.65502e-58,3.34795e+15,1.39284e+16,9.09046e+11,1.72773e+16
8.45e+06,130879,7.74789e+06,3.31903e+26,9.11275e+22,4.17245e+11,0.377132,2.30205e+31,0.03468,0.000278464,9.40429e-10,1.65471e-58,3.34683e+15,1.39243e+16,9.08706e+11,1.7272e+16
8.55e+06,130852,7.74716e+06,3.43785e+26,9.4357e+22,4.22181e+11,0.377203,2.29986e+31,0.03468,0.000278453,9.40312e-10,1.65426e-58,3.3457e+15,1.39202e+16,9.08362e+11,1.72668e+16
8.65e+06,130825,7.74641e+06,3.55945e+26,9.76604e+22,4.27116e+11,0.377275,2.29764e+31,0.03468,0.000278457,9.40349e-10,1.6544e-58,3.34456e+15,1.3916e+16,9.08015e+11,1.72614e+16
8.75e+06,130798,7.74566e+06,3.68388e+26,1.01038e+23,4.32052e+11,0.377348,2.2954e+31,0.03468,0.000278454,9.40313e-10,1.65426e-58,3.3434e+15,1.39117e+16,9.07663e+11,1.7256e+16
8.85e+06,130771,7.74491e+06,3.81115e+26,1.04491e+23,4.36988e+11,0.377422,2.29314e+31,0.03468,0.00027845,9.40257e-10,1.65405e-58,3.34223e+15,1.39075e+16,9.07308e+11,1.72506e+16
8.95e+06,130743,7.74414e+06,3.94131e+26,1.08021e+23,4.41923e+11,0.377497,2.29085e+31,0.03468,0.000278447,9.40226e-10,1.65393e-58,3.34105e+15,1.39031e+16,9.06949e+11,1.72451e+16
9.05e+06,130715,7.74336e+06,4.07437e+26,1.11627e+23,4.46859e+11,0.377572,2.28855e+31,0.03468,0.00027844,9.40138e-10,1.65359e-58,3.33985e+15,1.38987e+16,9.06585e+11,1.72395e+16
9.15e+06,130687,7.74258e+06,4.21039e+26,1.1531e+23,4.51794e+11,0.377648,2.28621e+31,0.03468,0.000278429,9.40011e-10,1.6531e-58,3.33864e+15,1.38943e+16,9.06218e+11,1.72339e+16
9.25e+06,130658,7.74179e+06,4.34937e+26,1.19072e+23,4.5673e+11,0.377726,2.28386e+31,0.03468,0.000278432,9.40052e-10,1.65325e-58,3.33742e+15,1.38898e+16,9.05848e+11,1.72282e+16
9.35e+06,130629,7.74099e+06,4.49137e+26,1.22913e+23,4.61665e+11,0.377804,2.28148e+31,0.03468,0.000278429,9.40013e-10,1.65311e-58,3.33619e+15,1.38853e+16,9.05473e+11,1.72224e+16
9.45e+06,130600,7.74018e+06,4.6364e+26,1.26833e+23,4.666e+11,0.377883,2.27908e+31,0.03468,0.000278425,9.39953e-10,1.65287e-58,3.33494e+15,1.38808e+16,9.05094e+11,1.72166e+16
9.55e+06,130570,7.73936e+06,4.7845e+26,1.30834e+23,4.71535e+11,0.377963,2.27665e+31,0.03468,0.000278422,9.39919e-10,1.65274e-58,3.33368e+15,1.38761e+16,9.04712e+11,1.72107e+16
9.65e+06,130540,7.73853e+06,4.9357e+26,1.34916e+23,4.7647e+11,0.378043,2.2742e+31,0.03468,0.000278414,9.39824e-10,1.65238e-58,3.33241e+15,1.38715e+16,9.04325e+11,1.72048e+16
9.75e+06,130510,7.7377e+06,5.09003e+26,1.39079e+23,4.81405e+11,0.378125,2.27173e+31,0.03468,0.000278402,9.39688e-10,1.65185e-58,3.33112e+15,1.38668e+16,9.03935e+11,1.71988e+16
9.85e+06,130479,7.73685e+06,5.24752e+26,1.43325e+23,4.8634e+11,0.378207,2.26924e+31,0.03468,0.000278406,9.39731e-10,1.65202e-58,3.32982e+15,1.3862e+16,9.03541e+11,1.71928e+16
9.95e+06,130449,7.736e+06,5.40821e+26,1.47654e+23,4.91275e+11,0.37829,2.26673e+31,0.03468,0.000278403,9.3969e-10,1.65186e-58,3.32851e+15,1.38572e+16,9.03143e+11,1.71866e+16
1.005e+07,130417,7.73514e+06,5.57212e+26,1.52067e+23,4.9621e+11,0.378374,2.26419e+31,0.03468,0.000278398,9.39625e-10,1.65161e-58,3.32719e+15,1.38524e+16,9.02741e+11,1.71805e+16
1.015e+07,130386,7.73427e+06,5.73928e+26,1.56565e+23,5.01144e+11,0.378459,2.26163e+31,0.03468,0.000278394,9.39589e-10,1.65147e-58,3.32585e+15,1.38475e+16,9.02336e+11,1.71742e+16
1.025e+07,130354,7.7334e+06,5.90973e+26,1.61148e+23,5.06079e+11,0.378545,2.25904e+31,0.03468,0.000278386,9.39488e-10,1.65108e-58,3.3245e+15,1.38425e+16,9.01926e+11,1.7168e+16
1.035e+07,130322,7.73251e+06,6.08349e+26,1.65816e+23,5.11013e+11,0.378632,2.25644e+31,0.03468,0.000278373,9.39342e-10,1.65052e-58,3.32314e+15,1.38376e+16,9.01513e+11,1.71616e+16
1.045e+07,130290,7.73162e+06,6.2606e+26,1.70572e+23,5.15948e+11,0.378719,2.25381e+31,0.03468,0.000278378,9.39388e-10,1.6507e-58,3.32177e+15,1.38325e+16,9.01096e+11,1.71552e+16
1.055e+07,130257,7.73071e+06,6.44109e+26,1.75414e+23,5.20882e+11,0.378808,2.25116e+31,0.03468,0.000278374,9.39344e-10,1.65053e-58,3.32038e+15,1.38274e+16,9.00675e+11,1.71487e+16
1.065e+07,130224,7.7298e+06,6.62499e+26,1.80344e+23,5.25816e+11,0.378897,2.24849e+31,0.03468,0.000278369,9.39275e-10,1.65026e-58,3.31898e+15,1.38223e+16,9.00251e+11,1.71422e+16
1.075e+07,130191,7.72888e+06,6.81232e+26,1.85363e+23,5.3075e+11,0.378987,2.2458e+31,0.03468,0.000278365,9.39236e-10,1.65011e-58,3.31757e+15,1.38171e+16,8.99822e+11,1.71356e+16
1.085e+07,130158,7.72795e+06,7.00313e+26,1.90471e+23,5.35685e+11,0.379078,2.24308e+31,0.03468,0.000278357,9.39128e-10,1.6497e-58,3.31615e+15,1.38119e+16,8.9939e+11,1.7129e+16
1.095e+07,130124,7.72702e+06,7.19743e+26,1.95669e+23,5.40619e+11,0.37917,2.24035e+31,0.03468,0.000278343,9.38972e-10,1.6491e-58,3.31471e+15,1.38067e+16,8.98954e+11,1.71223e+16
1.105e+07,130090,7.72607e+06,7.39527e+26,2.00958e+23,5.45552e+11,0.379263,2.23759e+31,0.03468,0.000278347,9.39022e-10,1.64929e-58,3.31326e+15,1.38014e+16,8.98515e+11,1.71155e+16
