X = 0.734
Y = 0.25
Z = 0.016
mu = 0.601142
Radius,Density,Temp,Mass,Lum,OptD,Kff,KH,Kes,PP,CNO,3a,Deg,Gas,Rad,TotPres
0,0,0,0,0,0,-nan,0,0.03468,0.000232075,4.03327e-10,2.55369e-59,0,0,0,0
1,130000,7.4598e+06,544543,126.375,55716.5,0.428589,1.63135e+31,0.03468,0.000232075,4.03327e-10,2.55369e-59,3.30946e+15,1.33165e+16,7.80907e+11,1.66268e+16
30001,130000,7.4598e+06,1.47041e+19,3.41247e+15,1.67155e+09,0.428589,1.63135e+31,0.03468,0.000232075,4.03327e-10,2.55369e-59,3.30946e+15,1.33165e+16,7.80907e+11,1.66268e+16
70001,130000,7.4598e+06,1.86786e+20,4.33484e+16,3.90021e+09,0.428589,1.63135e+31,0.03468,0.000232075,4.03327e-10,2.55369e-59,3.30946e+15,1.33165e+16,7.80906e+11,1.66268e+16
150001,130000,7.45979e+06,1.83787e+21,4.26521e+17,8.35753e+09,0.42859,1.63133e+31,0.03468,0.000232075,4.03327e-10,2.55369e-59,3.30945e+15,1.33165e+16,7.80903e+11,1.66267e+16
250001,129999,7.45978e+06,8.50854e+21,1.9746e+18,1.39292e+10,0.428592,1.63129e+31,0.03468,0.000232075,4.03327e-10,2.55369e-59,3.30942e+15,1.33164e+16,7.80896e+11,1.66266e+16
350001,129998,7.45975e+06,2.33473e+22,5.41819e+18,1.95008e+10,0.428595,1.63124e+31,0.03468,0.000232075,4.03327e-10,2.55369e-59,3.30938e+15,1.33162e+16,7.80885e+11,1.66264e+16
450001,129997,7.45972e+06,4.9621e+22,1.15153e+19,2.50725e+10,0.428598,1.63116e+31,0.03468,0.000232075,4.03327e-10,2.55369e-59,3.30932e+15,1.3316e+16,7.80871e+11,1.66262e+16
550001,129995,7.45967e+06,9.05968e+22,2.1024e+19,3.06441e+10,0.428603,1.63107e+31,0.03468,0.000232075,4.03327e-10,2.55369e-59,3.30926e+15,1.33158e+16,7.80853e+11,1.66258e+16
650001,129993,7.45962e+06,1.49541e+23,3.47017e+19,3.62157e+10,0.428609,1.63096e+31,0.03468,0.000232075,4.03327e-10,2.55369e-59,3.30917e+15,1.33155e+16,7.80832e+11,1.66255e+16
750001,129991,7.45956e+06,2.2972e+23,5.33062e+19,4.17874e+10,0.428616,1.63083e+31,0.03468,0.000232075,4.03327e-10,2.55369e-59,3.30908e+15,1.33152e+16,7.80807e+11,1.6625e+16
850001,129988,7.4595e+06,3.34401e+23,7.75944e+19,4.7359e+10,0.428624,1.63068e+31,0.03468,0.000232075,4.03327e-10,2.55369e-59,3.30897e+15,1.33148e+16,7.80779e+11,1.66246e+16
950001,129986,7.45942e+06,4.66848e+23,1.08323e+20,5.29306e+10,0.428632,1.63051e+31,0.03468,0.000232075,4.03326e-10,2.55369e-59,3.30885e+15,1.33144e+16,7.80747e+11,1.6624e+16
1.05e+06,129982,7.45933e+06,6.30327e+23,1.4625e+20,5.85022e+10,0.428642,1.63032e+31,0.03468,0.000232075,4.03326e-10,2.55368e-59,3.30872e+15,1.33139e+16,7.80711e+11,1.66234e+16
1.15e+06,129979,7.45924e+06,8.28103e+23,1.92129e+20,6.40738e+10,0.428653,1.63012e+31,0.03468,0.000232075,4.03326e-10,2.55368e-59,3.30857e+15,1.33134e+16,7.80672e+11,1.66227e+16
1.25e+06,129975,7.45914e+06,1.06344e+24,2.46718e+20,6.96454e+10,0.428664,1.62989e+31,0.03468,0.000232075,4.03325e-10,2.55367e-59,3.30841e+15,1.33128e+16,7.8063e+11,1.6622e+16
1.35e+06,129971,7.45903e+06,1.3396e+24,3.1077e+20,7.5217e+10,0.428677,1.62965e+31,0.03468,0.000232075,4.03325e-10,2.55366e-59,3.30823e+15,1.33122e+16,7.80584e+11,1.66212e+16
1.45e+06,129967,7.45891e+06,1.65985e+24,3.85042e+20,8.07885e+10,0.428691,1.62939e+31,0.03468,0.000232075,4.03325e-10,2.55366e-59,3.30804e+15,1.33115e+16,7.80534e+11,1.66203e+16
1.55e+06,129962,7.45878e+06,2.02746e+24,4.70286e+20,8.63601e+10,0.428705,1.62911e+31,0.03468,0.000232075,4.03324e-10,2.55366e-59,3.30784e+15,1.33108e+16,7.80481e+11,1.66194e+16
1.65e+06,129957,7.45865e+06,2.44567e+24,5.67256e+20,9.19316e+10,0.428721,1.62881e+31,0.03468,0.000232074,4.03323e-10,2.55364e-59,3.30763e+15,1.331e+16,7.80424e+11,1.66185e+16
1.75e+06,129951,7.4585e+06,2.91776e+24,6.76706e+20,9.75031e+10,0.428738,1.62849e+31,0.03468,0.000232074,4.03323e-10,2.55363e-59,3.3074e+15,1.33092e+16,7.80364e+11,1.66174e+16
1.85e+06,129946,7.45835e+06,3.44698e+24,7.99387e+20,1.03075e+11,0.428755,1.62816e+31,0.03468,0.000232074,4.03319e-10,2.55359e-59,3.30716e+15,1.33084e+16,7.803e+11,1.66163e+16
1.95e+06,129940,7.45819e+06,4.0366e+24,9.3605e+20,1.08646e+11,0.428774,1.6278e+31,0.03468,0.000232073,4.03317e-10,2.55356e-59,3.3069e+15,1.33075e+16,7.80232e+11,1.66152e+16
2.05e+06,129933,7.45802e+06,4.68987e+24,1.08745e+21,1.14218e+11,0.428793,1.62743e+31,0.03468,0.000232073,4.03317e-10,2.55356e-59,3.30663e+15,1.33065e+16,7.80162e+11,1.66139e+16
2.15e+06,129927,7.45784e+06,5.41005e+24,1.25432e+21,1.19789e+11,0.428814,1.62704e+31,0.03468,0.000232073,4.03316e-10,2.55353e-59,3.30635e+15,1.33055e+16,7.80087e+11,1.66127e+16
2.25e+06,129920,7.45766e+06,6.20039e+24,1.43743e+21,1.2536e+11,0.428835,1.62663e+31,0.03468,0.000232073,4.03313e-10,2.55349e-59,3.30606e+15,1.33045e+16,7.80009e+11,1.66113e+16
2.35e+06,129912,7.45746e+06,7.06416e+24,1.63752e+21,1.30932e+11,0.428857,1.6262e+31,0.03468,0.000232072,4.03311e-10,2.55347e-59,3.30575e+15,1.33034e+16,7.79928e+11,1.66099e+16
2.45e+06,129905,7.45726e+06,8.00461e+24,1.85534e+21,1.36503e+11,0.428881,1.62576e+31,0.03468,0.000232071,4.03304e-10,2.55338e-59,3.30543e+15,1.33023e+16,7.79842e+11,1.66085e+16
2.55e+06,129897,7.45705e+06,9.02499e+24,2.09163e+21,1.42075e+11,0.428905,1.62529e+31,0.03468,0.00023207,4.03297e-10,2.55328e-59,3.30509e+15,1.33011e+16,7.79754e+11,1.66069e+16
2.65e+06,129889,7.45683e+06,1.01285e+25,2.34713e+21,1.47646e+11,0.428931,1.62481e+31,0.03468,0.00023207,4.03299e-10,2.5533e-59,3.30474e+15,1.32998e+16,7.79662e+11,1.66054e+16
2.75e+06,129880,7.4566e+06,1.13185e+25,2.6226e+21,1.53217e+11,0.428957,1.62431e+31,0.03468,0.00023207,4.03295e-10,2.55325e-59,3.30438e+15,1.32985e+16,7.79566e+11,1.66037e+16
2.85e+06,129871,7.45636e+06,1.25982e+25,2.91877e+21,1.58789e+11,0.428984,1.62378e+31,0.03468,0.000232069,4.0329e-10,2.55319e-59,3.304e+15,1.32972e+16,7.79467e+11,1.6602e+16
2.95e+06,129862,7.45611e+06,1.39708e+25,3.23638e+21,1.6436e+11,0.429012,1.62325e+31,0.03468,0.000232069,4.03287e-10,2.55314e-59,3.30362e+15,1.32958e+16,7.79364e+11,1.66002e+16
3.05e+06,129853,7.45586e+06,1.54396e+25,3.57619e+21,1.69931e+11,0.429042,1.62269e+31,0.03468,0.000232067,4.03278e-10,2.55301e-59,3.30321e+15,1.32944e+16,7.79258e+11,1.65984e+16
3.15e+06,129843,7.4556e+06,1.70078e+25,3.93891e+21,1.75502e+11,0.429072,1.62211e+31,0.03468,0.000232065,4.03266e-10,2.55285e-59,3.3028e+15,1.32929e+16,7.79148e+11,1.65965e+16
3.25e+06,129833,7.45533e+06,1.86787e+25,4.3253e+21,1.81074e+11,0.429103,1.62152e+31,0.03468,0.000232066,4.03269e-10,2.5529e-59,3.30237e+15,1.32914e+16,7.79035e+11,1.65946e+16
3.35e+06,129822,7.45505e+06,2.04555e+25,4.73609e+21,1.86645e+11,0.429135,1.62091e+31,0.03468,0.000232065,4.03265e-10,2.55283e-59,3.30193e+15,1.32899e+16,7.78918e+11,1.65926e+16
3.45e+06,129812,7.45476e+06,2.23415e+25,5.17201e+21,1.92216e+11,0.429169,1.62028e+31,0.03468,0.000232064,4.03258e-10,2.55274e-59,3.30147e+15,1.32883e+16,7.78797e+11,1.65905e+16
3.55e+06,129801,7.45446e+06,2.43398e+25,5.6338e+21,1.97787e+11,0.429203,1.61963e+31,0.03468,0.000232063,4.03254e-10,2.55268e-59,3.301e+15,1.32866e+16,7.78674e+11,1.65884e+16
3.65e+06,129789,7.45416e+06,2.64538e+25,6.12219e+21,2.03358e+11,0.429238,1.61896e+31,0.03468,0.000232061,4.03242e-10,2.55251e-59,3.30052e+15,1.32849e+16,7.78546e+11,1.65862e+16
3.75e+06,129778,7.45384e+06,2.86867e+25,6.63791e+21,2.08929e+11,0.429274,1.61828e+31,0.03468,0.000232059,4.03225e-10,2.55228e-59,3.30003e+15,1.32831e+16,7.78415e+11,1.65839e+16
3.85e+06,129766,7.45352e+06,3.10416e+25,7.18168e+21,2.145e+11,0.429311,1.61757e+31,0.03468,0.000232059,4.0323e-10,2.55235e-59,3.29952e+15,1.32813e+16,7.78281e+11,1.65816e+16
3.95e+06,129753,7.45319e+06,3.35219e+25,7.75425e+21,2.20071e+11,0.429349,1.61685e+31,0.03468,0.000232059,4.03224e-10,2.55227e-59,3.299e+15,1.32795e+16,7.78143e+11,1.65793e+16
4.05e+06,129741,7.45285e+06,3.61308e+25,8.35633e+21,2.25642e+11,0.429388,1.61611e+31,0.03468,0.000232057,4.03216e-10,2.55215e-59,3.29846e+15,1.32776e+16,7.78001e+11,1.65768e+16
4.15e+06,129728,7.45251e+06,3.88714e+25,8.98865e+21,2.31213e+11,0.429428,1.61535e+31,0.03468,0.000232056,4.03211e-10,2.55208e-59,3.29792e+15,1.32756e+16,7.77857e+11,1.65743e+16
4.25e+06,129714,7.45215e+06,4.17471e+25,9.65193e+21,2.36784e+11,0.429469,1.61458e+31,0.03468,0.000232054,4.03195e-10,2.55187e-59,3.29735e+15,1.32737e+16,7.77708e+11,1.65718e+16
4.35e+06,129701,7.45179e+06,4.4761e+25,1.03469e+22,2.42355e+11,0.429511,1.61378e+31,0.03468,0.00023205,4.03174e-10,2.55158e-59,3.29678e+15,1.32716e+16,7.77556e+11,1.65692e+16
4.45e+06,129687,7.45141e+06,4.79164e+25,1.10742e+22,2.47925e+11,0.429554,1.61297e+31,0.03468,0.000232052,4.03181e-10,2.55167e-59,3.29619e+15,1.32695e+16,7.77401e+11,1.65665e+16
4.55e+06,129673,7.45103e+06,5.12165e+25,1.18347e+22,2.53496e+11,0.429598,1.61214e+31,0.03468,0.00023205,4.03174e-10,2.55157e-59,3.29559e+15,1.32674e+16,7.77242e+11,1.65638e+16
4.65e+06,129658,7.45064e+06,5.46645e+25,1.2629e+22,2.59067e+11,0.429643,1.61129e+31,0.03468,0.000232049,4.03163e-10,2.55142e-59,3.29498e+15,1.32652e+16,7.77079e+11,1.6561e+16
4.75e+06,129643,7.45025e+06,5.82637e+25,1.34579e+22,2.64638e+11,0.429689,1.61043e+31,0.03468,0.000232048,4.03157e-10,2.55134e-59,3.29435e+15,1.3263e+16,7.76913e+11,1.65581e+16
4.85e+06,129628,7.44984e+06,6.20172e+25,1.4322e+22,2.70208e+11,0.429736,1.60954e+31,0.03468,0.000232045,4.03139e-10,2.55109e-59,3.29371e+15,1.32607e+16,7.76744e+11,1.65552e+16
4.95e+06,129613,7.44942e+06,6.59282e+25,1.52221e+22,2.75779e+11,0.429784,1.60864e+31,0.03468,0.000232041,4.03113e-10,2.55073e-59,3.29305e+15,1.32584e+16,7.76571e+11,1.65522e+16
5.05e+06,129597,7.449e+06,7e+25,1.61589e+22,2.81349e+11,0.429833,1.60772e+31,0.03468,0.000232042,4.03121e-10,2.55084e-59,3.29239e+15,1.3256e+16,7.76394e+11,1.65492e+16
5.15e+06,129581,7.44857e+06,7.42358e+25,1.7133e+22,2.8692e+11,0.429883,1.60678e+31,0.03468,0.000232041,4.03113e-10,2.55073e-59,3.29171e+15,1.32536e+16,7.76214e+11,1.65461e+16
5.25e+06,129565,7.44813e+06,7.86387e+25,1.81452e+22,2.9249e+11,0.429933,1.60583e+31,0.03468,0.000232039,4.03101e-10,2.55055e-59,3.29101e+15,1.32512e+16,7.76031e+11,1.6543e+16
5.35e+06,129548,7.44768e+06,8.32121e+25,1.91962e+22,2.98061e+11,0.429985,1.60485e+31,0.03468,0.000232038,4.03093e-10,2.55045e-59,3.29031e+15,1.32487e+16,7.75844e+11,1.65398e+16
5.45e+06,129531,7.44722e+06,8.7959e+25,2.02867e+22,3.03631e+11,0.430038,1.60386e+31,0.03468,0.000232034,4.03072e-10,2.55016e-59,3.28959e+15,1.32461e+16,7.75654e+11,1.65365e+16
5.55e+06,129514,7.44676e+06,9.28827e+25,2.14174e+22,3.09201e+11,0.430092,1.60285e+31,0.03468,0.000232029,4.03043e-10,2.54975e-59,3.28885e+15,1.32435e+16,7.7546e+11,1.65331e+16
5.65e+06,129496,7.44629e+06,9.79864e+25,2.2589e+22,3.14772e+11,0.430147,1.60183e+31,0.03468,0.000232031,4.03052e-10,2.54988e-59,3.28811e+15,1.32409e+16,7.75263e+11,1.65298e+16
5.75e+06,129478,7.4458e+06,1.03273e+26,2.38021e+22,3.20342e+11,0.430202,1.60078e+31,0.03468,0.000232029,4.03043e-10,2.54975e-59,3.28735e+15,1.32382e+16,7.75062e+11,1.65263e+16
5.85e+06,129460,7.44531e+06,1.08747e+26,2.50575e+22,3.25912e+11,0.430259,1.59972e+31,0.03468,0.000232027,4.03028e-10,2.54955e-59,3.28657e+15,1.32354e+16,7.74858e+11,1.65228e+16
5.95e+06,129441,7.44481e+06,1.14409e+26,2.63558e+22,3.31482e+11,0.430317,1.59864e+31,0.03468,0.000232026,4.0302e-10,2.54943e-59,3.28579e+15,1.32327e+16,7.7465e+11,1.65192e+16
6.05e+06,129422,7.44431e+06,1.20265e+26,2.76977e+22,3.37052e+11,0.430376,1.59754e+31,0.03468,0.000232022,4.02996e-10,2.5491e-59,3.28499e+15,1.32298e+16,7.74439e+11,1.65156e+16
6.15e+06,129403,7.44379e+06,1.26316e+26,2.9084e+22,3.42622e+11,0.430435,1.59643e+31,0.03468,0.000232016,4.02962e-10,2.54863e-59,3.28418e+15,1.3227e+16,7.74224e+11,1.65119e+16
6.25e+06,129384,7.44327e+06,1.32567e+26,3.05153e+22,3.48192e+11,0.430496,1.5953e+31,0.03468,0.000232018,4.02972e-10,2.54878e-59,3.28335e+15,1.3224e+16,7.74006e+11,1.65082e+16
6.35e+06,129364,7.44273e+06,1.3902e+26,3.19922e+22,3.53762e+11,0.430558,1.59415e+31,0.03468,0.000232016,4.02962e-10,2.54863e-59,3.28252e+15,1.32211e+16,7.73785e+11,1.65043e+16
6.45e+06,129344,7.44219e+06,1.45678e+26,3.35155e+22,3.59332e+11,0.43062,1.59298e+31,0.03468,0.000232014,4.02945e-10,2.5484e-59,3.28167e+15,1.3218e+16,7.7356e+11,1.65005e+16
6.55e+06,129323,7.44164e+06,1.52545e+26,3.50858e+22,3.64902e+11,0.430684,1.5918e+31,0.03468,0.000232012,4.02936e-10,2.54827e-59,3.2808e+15,1.3215e+16,7.73331e+11,1.64965e+16
6.65e+06,129303,7.44109e+06,1.59623e+26,3.67038e+22,3.70472e+11,0.430749,1.5906e+31,0.03468,0.000232008,4.02909e-10,2.5479e-59,3.27992e+15,1.32119e+16,7.73099e+11,1.64926e+16
6.75e+06,129282,7.44052e+06,1.66917e+26,3.83702e+22,3.76041e+11,0.430814,1.58938e+31,0.03468,0.000232001,4.02871e-10,2.54737e-59,3.27903e+15,1.32087e+16,7.72864e+11,1.64885e+16
6.85e+06,129260,7.43994e+06,1.74429e+26,4.00856e+22,3.81611e+11,0.430881,1.58814e+31,0.03468,0.000232004,4.02883e-10,2.54754e-59,3.27813e+15,1.32055e+16,7.72625e+11,1.64844e+16
6.95e+06,129239,7.43936e+06,1.82161e+26,4.18506e+22,3.87181e+11,0.430949,1.58689e+31,0.03468,0.000232002,4.02871e-10,2.54737e-59,3.27721e+15,1.32023e+16,7.72383e+11,1.64802e+16
7.05e+06,129217,7.43877e+06,1.90119e+26,4.36661e+22,3.9275e+11,0.431017,1.58562e+31,0.03468,0.000231999,4.02852e-10,2.54711e-59,3.27629e+15,1.3199e+16,7.72137e+11,1.6476e+16
7.15e+06,129194,7.43817e+06,1.98304e+26,4.55325e+22,3.98319e+11,0.431087,1.58433e+31,0.03468,0.000231997,4.02842e-10,2.54697e-59,3.27534e+15,1.31956e+16,7.71888e+11,1.64717e+16
7.25e+06,129172,7.43756e+06,2.06719e+26,4.74505e+22,4.03889e+11,0.431157,1.58303e+31,0.03468,0.000231993,4.02812e-10,2.54656e-59,3.27439e+15,1.31922e+16,7.71636e+11,1.64674e+16
7.35e+06,129149,7.43694e+06,2.15369e+26,4.94209e+22,4.09458e+11,0.431229,1.58171e+31,0.03468,0.000231985,4.0277e-10,2.54597e-59,3.27342e+15,1.31888e+16,7.7138e+11,1.6463e+16
7.45e+06,129125,7.43632e+06,2.24256e+26,5.14443e+22,4.15027e+11,0.431302,1.58037e+31,0.03468,0.000231988,4.02783e-10,2.54616e-59,3.27244e+15,1.31853e+16,7.71121e+11,1.64585e+16
7.55e+06,129102,7.43569e+06,2.33382e+26,5.35212e+22,4.20597e+11,0.431375,1.57901e+31,0.03468,0.000231986,4.0277e-10,2.54598e-59,3.27145e+15,1.31818e+16,7.70858e+11,1.6454e+16
7.65e+06,129078,7.43504e+06,2.42752e+26,5.56523e+22,4.26166e+11,0.43145,1.57764e+31,0.03468,0.000231982,4.02749e-10,2.54569e-59,3.27044e+15,1.31782e+16,7.70592e+11,1.64494e+16
7.75e+06,129054,7.43439e+06,2.52369e+26,5.78384e+22,4.31735e+11,0.431525,1.57625e+31,0.03468,0.00023198,4.02738e-10,2.54553e-59,3.26942e+15,1.31746e+16,7.70323e+11,1.64448e+16
7.85e+06,129030,7.43374e+06,2.62234e+26,6.00799e+22,4.37304e+11,0.431602,1.57485e+31,0.03468,0.000231975,4.02705e-10,2.54508e-59,3.26839e+15,1.31709e+16,7.7005e+11,1.64401e+16
7.95e+06,129005,7.43307e+06,2.72353e+26,6.23777e+22,4.42873e+11,0.431679,1.57343e+31,0.03468,0.000231967,4.02658e-10,2.54443e-59,3.26734e+15,1.31672e+16,7.69773e+11,1.64353e+16
8.05e+06,128980,7.43239e+06,2.82727e+26,6.47321e+22,4.48442e+11,0.431758,1.57199e+31,0.03468,0.00023197,4.02673e-10,2.54464e-59,3.26628e+15,1.31635e+16,7.69494e+11,1.64305e+16
8.15e+06,128954,7.43171e+06,2.93361e+26,6.7144e+22,4.5401e+11,0.431837,1.57053e+31,0.03468,0.000231968,4.02659e-10,2.54444e-59,3.26521e+15,1.31597e+16,7.69211e+11,1.64257e+16
8.25e+06,128929,7.43102e+06,3.04256e+26,6.96139e+22,4.59579e+11,0.431918,1.56906e+31,0.03468,0.000231964,4.02636e-10,2.54413e-59,3.26413e+15,1.31558e+16,7.68924e+11,1.64207e+16
8.35e+06,128903,7.43032e+06,3.15416e+26,7.21425e+22,4.65148e+11,0.431999,1.56757e+31,0.03468,0.000231962,4.02624e-10,2.54395e-59,3.26303e+15,1.31519e+16,7.68634e+11,1.64157e+16
8.45e+06,128876,7.42961e+06,3.26845e+26,7.47303e+22,4.70716e+11,0.432082,1.56607e+31,0.03468,0.000231957,4.02588e-10,2.54346e-59,3.26192e+15,1.3148e+16,7.68341e+11,1.64107e+16
8.55e+06,128850,7.42889e+06,3.38545e+26,7.7378e+22,4.76285e+11,0.432165,1.56455e+31,0.03468,0.000231948,4.02537e-10,2.54275e-59,3.2608e+15,1.3144e+16,7.68044e+11,1.64056e+16
8.65e+06,128823,7.42817e+06,3.50519e+26,8.00862e+22,4.81853e+11,0.43225,1.56301e+31,0.03468,0.000231951,4.02554e-10,2.54298e-59,3.25966e+15,1.314e+16,7.67745e+11,1.64004e+16
8.75e+06,128796,7.42743e+06,3.62771e+26,8.28555e+22,4.87422e+11,0.432336,1.56145e+31,0.03468,0.000231948,4.02538e-10,2.54276e-59,3.25852e+15,1.31359e+16,7.67441e+11,1.63952e+16
8.85e+06,128768,7.42669e+06,3.75303e+26,8.56865e+22,4.9299e+11,0.432422,1.55988e+31,0.03468,0.000231945,4.02513e-10,2.54242e-59,3.25735e+15,1.31318e+16,7.67135e+11,1.63899e+16
8.95e+06,128740,7.42594e+06,3.88119e+26,8.85797e+22,4.98558e+11,0.43251,1.5583e+31,0.03468,0.000231942,4.025e-10,2.54224e-59,3.25618e+15,1.31276e+16,7.66825e+11,1.63846e+16
9.05e+06,128712,7.42518e+06,4.01222e+26,9.15359e+22,5.04126e+11,0.432598,1.55669e+31,0.03468,0.000231936,4.02461e-10,2.5417e-59,3.25499e+15,1.31234e+16,7.66511e+11,1.63792e+16
9.15e+06,128684,7.42441e+06,4.14615e+26,9.45556e+22,5.09694e+11,0.432688,1.55508e+31,0.03468,0.000231927,4.02406e-10,2.54094e-59,3.2538e+15,1.31192e+16,7.66194e+11,1.63737e+16
9.25e+06,128655,7.42364e+06,4.28301e+26,9.76393e+22,5.15262e+11,0.432778,1.55344e+31,0.03468,0.00023193,4.02424e-10,2.54118e-59,3.25258e+15,1.31149e+16,7.65874e+11,1.63682e+16
9.35e+06,128626,7.42286e+06,4.42282e+26,1.00788e+23,5.2083e+11,0.43287,1.55179e+31,0.03468,0.000231927,4.02407e-10,2.54095e-59,3.25136e+15,1.31105e+16,7.65551e+11,1.63626e+16
9.45e+06,128596,7.42206e+06,4.56563e+26,1.04001e+23,5.26398e+11,0.432962,1.55012e+31,0.03468,0.000231923,4.0238e-10,2.54058e-59,3.25012e+15,1.31061e+16,7.65224e+11,1.6357e+16
9.55e+06,128567,7.42126e+06,4.71146e+26,1.07281e+23,5.31966e+11,0.433056,1.54844e+31,0.03468,0.000231921,4.02366e-10,2.54038e-59,3.24887e+15,1.31017e+16,7.64894e+11,1.63513e+16
9.65e+06,128537,7.42045e+06,4.86034e+26,1.10627e+23,5.37534e+11,0.43315,1.54674e+31,0.03468,0.000231914,4.02324e-10,2.53981e-59,3.24761e+15,1.30972e+16,7.64561e+11,1.63456e+16
9.75e+06,128506,7.41964e+06,5.0123e+26,1.1404e+23,5.43101e+11,0.433246,1.54503e+31,0.03468,0.000231904,4.02265e-10,2.53899e-59,3.24634e+15,1.30927e+16,7.64224e+11,1.63398e+16
9.85e+06,128476,7.41881e+06,5.16738e+26,1.1752e+23,5.48669e+11,0.433342,1.5433e+31,0.03468,0.000231907,4.02284e-10,2.53925e-59,3.24505e+15,1.30881e+16,7.63884e+11,1.63339e+16
9.95e+06,128445,7.41798e+06,5.32559e+26,1.21068e+23,5.54236e+11,0.43344,1.54155e+31,0.03468,0.000231905,4.02266e-10,2.539e-59,3.24375e+15,1.30835e+16,7.63541e+11,1.6328e+16
1.005e+07,128414,7.41714e+06,5.48699e+26,1.24686e+23,5.59803e+11,0.433538,1.53979e+31,0.03468,0.0002319,4.02237e-10,2.5386e-59,3.24244e+15,1.30788e+16,7.63194e+11,1.6322e+16
1.015e+07,128382,7.41629e+06,5.65158e+26,1.28372e+23,5.65371e+11,0.433638,1.53801e+31,0.03468,0.000231898,4.02222e-10,2.53839e-59,3.24111e+15,1.30741e+16,7.62844e+11,1.6316e+16
1.025e+07,128351,7.41543e+06,5.81941e+26,1.32128e+23,5.70938e+11,0.433738,1.53622e+31,0.03468,0.000231891,4.02177e-10,2.53777e-59,3.23977e+15,1.30694e+16,7.62491e+11,1.63099e+16
1.035e+07,128318,7.41456e+06,5.9905e+26,1.35954e+23,5.76505e+11,0.43384,1.53442e+31,0.03468,0.00023188,4.02114e-10,2.5369e-59,3.23842e+15,1.30646e+16,7.62135e+11,1.63038e+16
1.045e+07,128286,7.41368e+06,6.16489e+26,1.39852e+23,5.82072e+11,0.433942,1.53259e+31,0.03468,0.000231883,4.02134e-10,2.53718e-59,3.23706e+15,1.30597e+16,7.61775e+11,1.62975e+16
1.055e+07,128253,7.4128e+06,6.3426e+26,1.43821e+23,5.87639e+11,0.434046,1.53075e+31,0.03468,0.00023188,4.02115e-10,2.53691e-59,3.23568e+15,1.30548e+16,7.61412e+11,1.62913e+16
1.065e+07,128220,7.41191e+06,6.52367e+26,1.47861e+23,5.93205e+11,0.434151,1.5289e+31,0.03468,0.000231876,4.02084e-10,2.53649e-59,3.2343e+15,1.30499e+16,7.61045e+11,1.6285e+16
1.075e+07,128187,7.41101e+06,6.70812e+26,1.51974e+23,5.98772e+11,0.434256,1.52703e+31,0.03468,0.000231873,4.02068e-10,2.53626e-59,3.2329e+15,1.30449e+16,7.60676e+11,1.62786e+16
1.085e+07,128153,7.4101e+06,6.89599e+26,1.56161e+23,6.04339e+11,0.434363,1.52515e+31,0.03468,0.000231866,4.0202e-10,2.5356e-59,3.23148e+15,1.30399e+16,7.60303e+11,1.62722e+16
1.095e+07,128119,7.40918e+06,7.0873e+26,1.6042e+23,6.09905e+11,0.43447,1.52325e+31,0.03468,0.000231854,4.01952e-10,2.53467e-59,3.23006e+15,1.30349e+16,7.59927e+11,1.62657e+16
1.105e+07,128085,7.40826e+06,7.28209e+26,1.64754e+23,6.15472e+11,0.434579,1.52134e+31,0.03468,0.000231858,4.01974e-10,2.53497e-59,3.22862e+15,1.30297e+16,7.59547e+11,1.62591e+16
