X = 0.734
Y = 0.25
Z = 0.016
mu = 0.601142
Radius,Density,Temp,Mass,Lum,OptD,Kff,KH,Kes,PP,CNO,3a,Deg,Gas,Rad,TotPres
0,0,0,0,0,0,-nan,0,0.03468,0.0746374,0.109484,6.91843e-41,0,0,0,0
1,1.35009e+06,1.75976e+07,5.65524e+06,1.04125e+06,147690,0.109393,1.18933e+35,0.03468,0.0746374,0.109484,6.91843e-41,1.63602e+17,3.2624e+17,2.41829e+13,4.89866e+17
100026,1.35008e+06,1.75976e+07,5.65967e+21,1.04205e+21,1.47728e+10,0.109393,1.18931e+35,0.03468,0.0746374,0.109484,6.91843e-41,1.63601e+17,3.26238e+17,2.41827e+13,4.89863e+17
200036,1.35007e+06,1.75975e+07,4.52657e+22,8.33373e+21,2.95432e+10,0.109395,1.18923e+35,0.03468,0.0746374,0.109484,6.91843e-41,1.63597e+17,3.26232e+17,2.41821e+13,4.89853e+17
300075,1.35004e+06,1.75973e+07,1.52802e+23,2.81292e+22,4.4318e+10,0.109397,1.18911e+35,0.03468,0.0746374,0.109484,6.91843e-41,1.63592e+17,3.26222e+17,2.41811e+13,4.89838e+17
400340,1.35e+06,1.75971e+07,3.62845e+23,6.67868e+22,5.91262e+10,0.1094,1.18893e+35,0.03468,0.0746374,0.109484,6.91843e-41,1.63584e+17,3.26207e+17,2.41797e+13,4.89815e+17
500509,1.34995e+06,1.75967e+07,7.09021e+23,1.30483e+23,7.39202e+10,0.109405,1.18871e+35,0.03468,0.0746374,0.109484,6.91843e-41,1.63574e+17,3.26189e+17,2.41779e+13,4.89787e+17
600560,1.34989e+06,1.75963e+07,1.22484e+24,2.25363e+23,8.86967e+10,0.10941,1.18844e+35,0.03468,0.0746374,0.109484,6.91843e-41,1.63561e+17,3.26167e+17,2.41757e+13,4.89752e+17
700972,1.34981e+06,1.75958e+07,1.9476e+24,3.58254e+23,1.03527e+11,0.109416,1.18812e+35,0.03468,0.0746374,0.109484,6.91843e-41,1.63546e+17,3.2614e+17,2.4173e+13,4.89711e+17
801242,1.34973e+06,1.75953e+07,2.90852e+24,5.34858e+23,1.18336e+11,0.109423,1.18774e+35,0.03468,0.0746374,0.109484,6.91843e-41,1.63529e+17,3.2611e+17,2.417e+13,4.89663e+17
901605,1.34963e+06,1.75947e+07,4.14393e+24,7.6179e+23,1.33159e+11,0.109432,1.18732e+35,0.03468,0.0746374,0.109484,6.91843e-41,1.6351e+17,3.26075e+17,2.41666e+13,4.89609e+17
1.00174e+06,1.34953e+06,1.7594e+07,5.68343e+24,1.04442e+24,1.47948e+11,0.109441,1.18685e+35,0.03468,0.0746374,0.109484,6.91843e-41,1.63489e+17,3.26036e+17,2.41627e+13,4.89549e+17
1.10225e+06,1.34941e+06,1.75932e+07,7.57111e+24,1.39074e+24,1.62792e+11,0.109451,1.18633e+35,0.03468,0.0746374,0.109484,6.91843e-41,1.63465e+17,3.25993e+17,2.41585e+13,4.89482e+17
1.20292e+06,1.34928e+06,1.75924e+07,9.84022e+24,1.80675e+24,1.77661e+11,0.109462,1.18576e+35,0.03468,0.0746374,0.109484,6.91843e-41,1.63439e+17,3.25946e+17,2.41538e+13,4.89409e+17
1.30302e+06,1.34914e+06,1.75914e+07,1.2506e+25,2.29511e+24,1.92445e+11,0.109474,1.18514e+35,0.03468,0.0746374,0.109484,6.91843e-41,1.6341e+17,3.25896e+17,2.41488e+13,4.8933e+17
1.40304e+06,1.34899e+06,1.75904e+07,1.56117e+25,2.86357e+24,2.07218e+11,0.109487,1.18447e+35,0.03468,0.0746374,0.109484,6.91843e-41,1.6338e+17,3.25841e+17,2.41433e+13,4.89244e+17
1.50399e+06,1.34882e+06,1.75894e+07,1.92284e+25,3.52496e+24,2.22128e+11,0.109501,1.18375e+35,0.03468,0.0746374,0.109484,6.91843e-41,1.63347e+17,3.25781e+17,2.41374e+13,4.89152e+17
1.605e+06,1.34865e+06,1.75882e+07,2.33667e+25,4.28101e+24,2.37047e+11,0.109516,1.18298e+35,0.03468,0.0746374,0.109484,6.91843e-41,1.63311e+17,3.25717e+17,2.41311e+13,4.89053e+17
1.70513e+06,1.34846e+06,1.7587e+07,2.80164e+25,5.12963e+24,2.51837e+11,0.109532,1.18216e+35,0.03468,0.0746374,0.109484,6.91843e-41,1.63274e+17,3.2565e+17,2.41245e+13,4.88948e+17
1.80612e+06,1.34826e+06,1.75857e+07,3.32918e+25,6.09136e+24,2.66752e+11,0.109549,1.18129e+35,0.03468,0.0746374,0.109484,6.91843e-41,1.63234e+17,3.25578e+17,2.41174e+13,4.88836e+17
1.90738e+06,1.34805e+06,1.75843e+07,3.92075e+25,7.16856e+24,2.81708e+11,0.109567,1.18037e+35,0.03468,0.0746374,0.109484,6.91843e-41,1.63191e+17,3.25502e+17,2.41098e+13,4.88718e+17
2.00831e+06,1.34783e+06,1.75829e+07,4.57623e+25,8.36069e+24,2.96616e+11,0.109586,1.1794e+35,0.03468,0.0746374,0.109484,6.91843e-41,1.63147e+17,3.25422e+17,2.41019e+13,4.88593e+17
2.10986e+06,1.3476e+06,1.75814e+07,5.30553e+25,9.68532e+24,3.11615e+11,0.109606,1.17837e+35,0.03468,0.0746374,0.109484,6.91843e-41,1.631e+17,3.25338e+17,2.40935e+13,4.88462e+17
2.20993e+06,1.34736e+06,1.75798e+07,6.09617e+25,1.11194e+25,3.26396e+11,0.109627,1.17731e+35,0.03468,0.0746374,0.109484,6.91843e-41,1.63051e+17,3.2525e+17,2.40848e+13,4.88325e+17
2.31129e+06,1.3471e+06,1.75781e+07,6.97332e+25,1.27082e+25,3.41369e+11,0.109649,1.17619e+35,0.03468,0.0746374,0.109484,6.91843e-41,1.63e+17,3.25157e+17,2.40757e+13,4.88181e+17
2.4119e+06,1.34684e+06,1.75764e+07,7.92324e+25,1.44262e+25,3.5623e+11,0.109672,1.17503e+35,0.03468,0.0746374,0.109484,6.91843e-41,1.62946e+17,3.25061e+17,2.40662e+13,4.88031e+17
2.51314e+06,1.34656e+06,1.75745e+07,8.9623e+25,1.63025e+25,3.71184e+11,0.109696,1.17381e+35,0.03468,0.0746374,0.109484,6.91843e-41,1.6289e+17,3.2496e+17,2.40562e+13,4.87875e+17
2.61472e+06,1.34627e+06,1.75726e+07,1.00923e+26,1.83396e+25,3.86189e+11,0.109721,1.17254e+35,0.03468,0.0746374,0.109484,6.91843e-41,1.62832e+17,3.24855e+17,2.40457e+13,4.87711e+17
2.71636e+06,1.34597e+06,1.75707e+07,1.1314e+26,2.05384e+25,4.01202e+11,0.109747,1.17122e+35,0.03468,0.0746374,0.109484,6.91843e-41,1.62771e+17,3.24746e+17,2.40349e+13,4.8754e+17
2.81774e+06,1.34565e+06,1.75686e+07,1.26268e+26,2.2897e+25,4.16177e+11,0.109774,1.16986e+35,0.03468,0.0746374,0.109484,6.91843e-41,1.62708e+17,3.24632e+17,2.40237e+13,4.87364e+17
2.91854e+06,1.34533e+06,1.75665e+07,1.4029e+26,2.54116e+25,4.31067e+11,0.109802,1.16845e+35,0.03468,0.0746374,0.109484,6.91843e-41,1.62643e+17,3.24515e+17,2.40121e+13,4.87182e+17
3.0207e+06,1.34499e+06,1.75643e+07,1.5552e+26,2.81377e+25,4.46158e+11,0.109831,1.16698e+35,0.03468,0.0746374,0.109484,6.91843e-41,1.62575e+17,3.24393e+17,2.4e+13,4.86991e+17
3.12177e+06,1.34465e+06,1.7562e+07,1.71633e+26,3.10161e+25,4.61089e+11,0.109861,1.16548e+35,0.03468,0.0746374,0.109484,6.91843e-41,1.62505e+17,3.24268e+17,2.39876e+13,4.86797e+17
3.22382e+06,1.34429e+06,1.75596e+07,1.88991e+26,3.41108e+25,4.76164e+11,0.109892,1.16391e+35,0.03468,0.0746374,0.109484,6.91843e-41,1.62432e+17,3.24137e+17,2.39747e+13,4.86593e+17
3.32424e+06,1.34392e+06,1.75572e+07,2.07174e+26,3.73458e+25,4.90999e+11,0.109923,1.16232e+35,0.03468,0.0746374,0.109484,6.91843e-41,1.62358e+17,3.24004e+17,2.39616e+13,4.86387e+17
3.42524e+06,1.34354e+06,1.75548e+07,2.26599e+26,4.07943e+25,5.0592e+11,0.109956,1.16067e+35,0.03468,0.0746374,0.109484,6.91843e-41,1.62282e+17,3.23867e+17,2.3948e+13,4.86173e+17
3.52668e+06,1.34315e+06,1.75522e+07,2.4729e+26,4.44596e+25,5.20906e+11,0.10999,1.15897e+35,0.03468,0.0746374,0.109484,6.91843e-41,1.62203e+17,3.23725e+17,2.3934e+13,4.85952e+17
3.62842e+06,1.34275e+06,1.75495e+07,2.69266e+26,4.83437e+25,5.35936e+11,0.110025,1.15722e+35,0.03468,0.0746374,0.109484,6.91843e-41,1.62122e+17,3.23578e+17,2.39195e+13,4.85724e+17
3.73031e+06,1.34233e+06,1.75468e+07,2.92539e+26,5.24473e+25,5.50989e+11,0.110061,1.15542e+35,0.03468,0.0746374,0.109484,6.91843e-41,1.62038e+17,3.23428e+17,2.39046e+13,4.85489e+17
3.83221e+06,1.3419e+06,1.7544e+07,3.17113e+26,5.67698e+25,5.66044e+11,0.110099,1.15357e+35,0.03468,0.0746374,0.109484,6.91843e-41,1.61952e+17,3.23272e+17,2.38893e+13,4.85248e+17
3.93396e+06,1.34146e+06,1.75411e+07,3.42981e+26,6.13088e+25,5.81076e+11,0.110137,1.15167e+35,0.03468,0.0746374,0.109484,6.91843e-41,1.61863e+17,3.23114e+17,2.38736e+13,4.85001e+17
4.0354e+06,1.34101e+06,1.75381e+07,3.70129e+26,6.60603e+25,5.96064e+11,0.110176,1.14974e+35,0.03468,0.0746374,0.109484,6.91843e-41,1.61773e+17,3.22951e+17,2.38575e+13,4.84748e+17
4.13637e+06,1.34055e+06,1.75351e+07,3.98532e+26,7.10186e+25,6.10983e+11,0.110215,1.14777e+35,0.03468,0.0746374,0.109484,6.91843e-41,1.61681e+17,3.22785e+17,2.38411e+13,4.8449e+17
4.23671e+06,1.34009e+06,1.75321e+07,4.28155e+26,7.61761e+25,6.25808e+11,0.110256,1.14577e+35,0.03468,0.0746374,0.109484,6.91843e-41,1.61587e+17,3.22617e+17,2.38245e+13,4.84228e+17
4.3395e+06,1.3396e+06,1.75289e+07,4.59979e+26,8.1702e+25,6.40995e+11,0.110299,1.14367e+35,0.03468,0.0746374,0.109484,6.91843e-41,1.61489e+17,3.2244e+17,2.3807e+13,4.83952e+17
4.44147e+06,1.3391e+06,1.75256e+07,4.93063e+26,8.74304e+25,6.56062e+11,0.110342,1.14154e+35,0.03468,0.0746374,0.109484,6.91843e-41,1.61389e+17,3.2226e+17,2.37893e+13,4.83673e+17
4.54245e+06,1.3386e+06,1.75223e+07,5.27344e+26,9.33491e+25,6.70982e+11,0.110386,1.13939e+35,0.03468,0.0746374,0.109484,6.91843e-41,1.61288e+17,3.22078e+17,2.37714e+13,4.8339e+17
4.64573e+06,1.33807e+06,1.75188e+07,5.64008e+26,9.96608e+25,6.86244e+11,0.110432,1.13715e+35,0.03468,0.0746374,0.109484,6.91843e-41,1.61182e+17,3.21888e+17,2.37526e+13,4.83094e+17
4.74783e+06,1.33754e+06,1.75153e+07,6.01871e+26,1.06159e+26,7.0133e+11,0.110478,1.13488e+35,0.03468,0.0746374,0.109484,6.91843e-41,1.61076e+17,3.21696e+17,2.37337e+13,4.82796e+17
4.84854e+06,1.33701e+06,1.75118e+07,6.40838e+26,1.12827e+26,7.16213e+11,0.110525,1.13261e+35,0.03468,0.0746374,0.109484,6.91843e-41,1.60968e+17,3.21503e+17,2.37146e+13,4.82495e+17
4.95141e+06,1.33645e+06,1.75082e+07,6.82329e+26,1.19905e+26,7.31415e+11,0.110573,1.13023e+35,0.03468,0.0746374,0.109484,6.91843e-41,1.60856e+17,3.21301e+17,2.36947e+13,4.82181e+17
5.05269e+06,1.33589e+06,1.75045e+07,7.24879e+26,1.2714e+26,7.46382e+11,0.110623,1.12786e+35,0.03468,0.0746374,0.109484,6.91843e-41,1.60744e+17,3.21099e+17,2.36748e+13,4.81866e+17
5.15606e+06,1.3353e+06,1.75006e+07,7.70083e+26,1.34802e+26,7.61658e+11,0.110674,1.12539e+35,0.03468,0.0746374,0.109484,6.91843e-41,1.60627e+17,3.20888e+17,2.3654e+13,4.81539e+17
5.25762e+06,1.33472e+06,1.74968e+07,8.16276e+26,1.42605e+26,7.76667e+11,0.110725,1.12292e+35,0.03468,0.0746374,0.109484,6.91843e-41,1.6051e+17,3.20677e+17,2.36332e+13,4.8121e+17
5.3612e+06,1.33411e+06,1.74928e+07,8.65239e+26,1.50848e+26,7.91974e+11,0.110778,1.12035e+35,0.03468,0.0746374,0.109484,6.91843e-41,1.60388e+17,3.20458e+17,2.36116e+13,4.80869e+17
5.46273e+06,1.3335e+06,1.74888e+07,9.15086e+26,1.59211e+26,8.0698e+11,0.110832,1.1178e+35,0.03468,0.0746374,0.109484,6.91843e-41,1.60266e+17,3.20239e+17,2.359e+13,4.80529e+17
5.56621e+06,1.33287e+06,1.74846e+07,9.67806e+26,1.68025e+26,8.22274e+11,0.110887,1.11515e+35,0.03468,0.0746374,0.109484,6.91843e-41,1.6014e+17,3.20012e+17,2.35676e+13,4.80175e+17
5.66741e+06,1.33225e+06,1.74805e+07,1.02127e+27,1.76933e+26,8.37232e+11,0.110942,1.11252e+35,0.03468,0.0746374,0.109484,6.91843e-41,1.60014e+17,3.19785e+17,2.35454e+13,4.79823e+17
5.77048e+06,1.3316e+06,1.74762e+07,1.07769e+27,1.86298e+26,8.52464e+11,0.110999,1.10979e+35,0.03468,0.0746374,0.109484,6.91843e-41,1.59884e+17,3.19551e+17,2.35223e+13,4.79459e+17
5.87102e+06,1.33095e+06,1.7472e+07,1.13468e+27,1.95723e+26,8.67326e+11,0.111056,1.1071e+35,0.03468,0.0746374,0.109484,6.91843e-41,1.59755e+17,3.19318e+17,2.34994e+13,4.79097e+17
5.97334e+06,1.33028e+06,1.74676e+07,1.19469e+27,2.0561e+26,8.8245e+11,0.111115,1.10431e+35,0.03468,0.0746374,0.109484,6.91843e-41,1.59621e+17,3.19078e+17,2.34757e+13,4.78723e+17
6.07746e+06,1.32959e+06,1.7463e+07,1.25787e+27,2.1598e+26,8.97841e+11,0.111176,1.10144e+35,0.03468,0.0746374,0.109484,6.91843e-41,1.59483e+17,3.18829e+17,2.34513e+13,4.78336e+17
6.17878e+06,1.32891e+06,1.74585e+07,1.32142e+27,2.26372e+26,9.12817e+11,0.111237,1.0986e+35,0.03468,0.0746374,0.109484,6.91843e-41,1.59347e+17,3.18583e+17,2.34271e+13,4.77953e+17
6.2818e+06,1.3282e+06,1.74538e+07,1.38819e+27,2.37246e+26,9.28047e+11,0.111299,1.09567e+35,0.03468,0.0746374,0.109484,6.91843e-41,1.59206e+17,3.18328e+17,2.34021e+13,4.77557e+17
6.38657e+06,1.32747e+06,1.7449e+07,1.45833e+27,2.48623e+26,9.43535e+11,0.111364,1.09266e+35,0.03468,0.0746374,0.109484,6.91843e-41,1.5906e+17,3.18066e+17,2.33763e+13,4.77149e+17
6.48822e+06,1.32675e+06,1.74443e+07,1.52858e+27,2.59972e+26,9.58563e+11,0.111428,1.08969e+35,0.03468,0.0746374,0.109484,6.91843e-41,1.58916e+17,3.17807e+17,2.33508e+13,4.76747e+17
6.59152e+06,1.32601e+06,1.74394e+07,1.60222e+27,2.71819e+26,9.73834e+11,0.111494,1.08663e+35,0.03468,0.0746374,0.109484,6.91843e-41,1.58768e+17,3.1754e+17,2.33246e+13,4.76331e+17
6.69649e+06,1.32524e+06,1.74343e+07,1.67941e+27,2.84184e+26,9.89353e+11,0.111562,1.08349e+35,0.03468,0.0746374,0.109484,6.91843e-41,1.58615e+17,3.17265e+17,2.32976e+13,4.75903e+17
6.79803e+06,1.32449e+06,1.74294e+07,1.75638e+27,2.96461e+26,1.00437e+12,0.111629,1.08041e+35,0.03468,0.0746374,0.109484,6.91843e-41,1.58465e+17,3.16994e+17,2.32711e+13,4.75483e+17
6.90114e+06,1.32372e+06,1.74242e+07,1.83687e+27,3.09246e+26,1.01961e+12,0.111698,1.07724e+35,0.03468,0.0746374,0.109484,6.91843e-41,1.58311e+17,3.16716e+17,2.32437e+13,4.7505e+17
7.00584e+06,1.32292e+06,1.7419e+07,1.92106e+27,3.22557e+26,1.03509e+12,0.111769,1.07399e+35,0.03468,0.0746374,0.109484,6.91843e-41,1.58152e+17,3.16429e+17,2.32156e+13,4.74605e+17
7.1068e+06,1.32214e+06,1.74138e+07,2.0046e+27,3.3571e+26,1.05002e+12,0.111838,1.07082e+35,0.03468,0.0746374,0.109484,6.91843e-41,1.57997e+17,3.16149e+17,2.31881e+13,4.74169e+17
7.20923e+06,1.32134e+06,1.74085e+07,2.09178e+27,3.49373e+26,1.06517e+12,0.11191,1.06756e+35,0.03468,0.0746374,0.109484,6.91843e-41,1.57837e+17,3.15861e+17,2.31599e+13,4.73721e+17
7.31317e+06,1.32051e+06,1.74031e+07,2.18275e+27,3.63566e+26,1.08054e+12,0.111984,1.06422e+35,0.03468,0.0746374,0.109484,6.91843e-41,1.57672e+17,3.15565e+17,2.31309e+13,4.7326e+17
7.41864e+06,1.31966e+06,1.73974e+07,2.27767e+27,3.78306e+26,1.09613e+12,0.11206,1.06079e+35,0.03468,0.0746374,0.109484,6.91843e-41,1.57503e+17,3.1526e+17,2.3101e+13,4.72786e+17
7.51998e+06,1.31884e+06,1.7392e+07,2.37141e+27,3.92793e+26,1.11112e+12,0.112135,1.05746e+35,0.03468,0.0746374,0.109484,6.91843e-41,1.57339e+17,3.14963e+17,2.30719e+13,4.72325e+17
7.62274e+06,1.31799e+06,1.73863e+07,2.469e+27,4.07806e+26,1.12632e+12,0.112211,1.05404e+35,0.03468,0.0746374,0.109484,6.91843e-41,1.5717e+17,3.14659e+17,2.30421e+13,4.71852e+17
7.72692e+06,1.31711e+06,1.73806e+07,2.57061e+27,4.23362e+26,1.14173e+12,0.112289,1.05055e+35,0.03468,0.0746374,0.109484,6.91843e-41,1.56997e+17,3.14346e+17,2.30115e+13,4.71366e+17
7.83256e+06,1.31622e+06,1.73746e+07,2.6764e+27,4.39477e+26,1.15735e+12,0.11237,1.04697e+35,0.03468,0.0746374,0.109484,6.91843e-41,1.56819e+17,3.14025e+17,2.29801e+13,4.70867e+17
7.93369e+06,1.31535e+06,1.73689e+07,2.78031e+27,4.55228e+26,1.17231e+12,0.112449,1.04351e+35,0.03468,0.0746374,0.109484,6.91843e-41,1.56646e+17,3.13714e+17,2.29497e+13,4.70383e+17
8.03614e+06,1.31446e+06,1.7363e+07,2.88825e+27,4.71511e+26,1.18746e+12,0.112529,1.03997e+35,0.03468,0.0746374,0.109484,6.91843e-41,1.5647e+17,3.13395e+17,2.29185e+13,4.69887e+17
8.13995e+06,1.31355e+06,1.73569e+07,3.00038e+27,4.8834e+26,1.20282e+12,0.112612,1.03634e+35,0.03468,0.0746374,0.109484,6.91843e-41,1.56288e+17,3.13068e+17,2.28865e+13,4.69379e+17
8.24513e+06,1.31261e+06,1.73507e+07,3.11687e+27,5.05734e+26,1.21837e+12,0.112697,1.03264e+35,0.03468,0.0746374,0.109484,6.91843e-41,1.56103e+17,3.12732e+17,2.28538e+13,4.68858e+17
8.34539e+06,1.31171e+06,1.73447e+07,3.23063e+27,5.22633e+26,1.23321e+12,0.112779,1.02908e+35,0.03468,0.0746374,0.109484,6.91843e-41,1.55924e+17,3.12409e+17,2.28222e+13,4.68356e+17
8.4469e+06,1.31078e+06,1.73386e+07,3.34854e+27,5.4006e+26,1.24822e+12,0.112863,1.02544e+35,0.03468,0.0746374,0.109484,6.91843e-41,1.5574e+17,3.12078e+17,2.27899e+13,4.67841e+17
8.54968e+06,1.30983e+06,1.73323e+07,3.47076e+27,5.5803e+26,1.26343e+12,0.112949,1.02173e+35,0.03468,0.0746374,0.109484,6.91843e-41,1.55553e+17,3.11739e+17,2.27568e+13,4.67315e+17
8.65373e+06,1.30886e+06,1.73258e+07,3.59744e+27,5.76557e+26,1.27882e+12,0.113038,1.01794e+35,0.03468,0.0746374,0.109484,6.91843e-41,1.55361e+17,3.11393e+17,2.2723e+13,4.66776e+17
8.75908e+06,1.30787e+06,1.73192e+07,3.72874e+27,5.95655e+26,1.29441e+12,0.113128,1.01407e+35,0.03468,0.0746374,0.109484,6.91843e-41,1.55164e+17,3.11038e+17,2.26884e+13,4.66225e+17
8.86575e+06,1.30685e+06,1.73125e+07,3.86484e+27,6.1534e+26,1.31019e+12,0.113221,1.01012e+35,0.03468,0.0746374,0.109484,6.91843e-41,1.54963e+17,3.10674e+17,2.2653e+13,4.6566e+17
8.96697e+06,1.30588e+06,1.7306e+07,3.99693e+27,6.34342e+26,1.32517e+12,0.113311,1.00634e+35,0.03468,0.0746374,0.109484,6.91843e-41,1.5477e+17,3.10326e+17,2.2619e+13,4.65119e+17
9.06937e+06,1.30488e+06,1.72993e+07,4.13355e+27,6.53886e+26,1.34032e+12,0.113402,1.00249e+35,0.03468,0.0746374,0.109484,6.91843e-41,1.54573e+17,3.0997e+17,2.25843e+13,4.64566e+17
9.17297e+06,1.30386e+06,1.72925e+07,4.27483e+27,6.73986e+26,1.35565e+12,0.113496,9.98561e+34,0.03468,0.0746374,0.109484,6.91843e-41,1.54372e+17,3.09606e+17,2.25489e+13,4.64e+17
9.27779e+06,1.30281e+06,1.72856e+07,4.42094e+27,6.94654e+26,1.37116e+12,0.113592,9.94559e+34,0.03468,0.0746374,0.109484,6.91843e-41,1.54166e+17,3.09234e+17,2.25127e+13,4.63422e+17
9.38384e+06,1.30175e+06,1.72785e+07,4.57204e+27,7.15905e+26,1.38686e+12,0.11369,9.90481e+34,0.03468,0.0746374,0.109484,6.91843e-41,1.53956e+17,3.08854e+17,2.24757e+13,4.62832e+17
9.48395e+06,1.30073e+06,1.72717e+07,4.71773e+27,7.36277e+26,1.40168e+12,0.113784,9.86605e+34,0.03468,0.0746374,0.109484,6.91843e-41,1.53755e+17,3.08491e+17,2.24405e+13,4.62269e+17
9.58516e+06,1.29969e+06,1.72648e+07,4.86806e+27,7.57178e+26,1.41665e+12,0.11388,9.82659e+34,0.03468,0.0746374,0.109484,6.91843e-41,1.53551e+17,3.08121e+17,2.24045e+13,4.61695e+17
9.68748e+06,1.29863e+06,1.72577e+07,5.02318e+27,7.78622e+26,1.4318e+12,0.113979,9.78645e+34,0.03468,0.0746374,0.109484,6.91843e-41,1.53342e+17,3.07744e+17,2.23679e+13,4.61108e+17
9.79093e+06,1.29755e+06,1.72505e+07,5.18324e+27,8.00619e+26,1.44711e+12,0.114079,9.74559e+34,0.03468,0.0746374,0.109484,6.91843e-41,1.53129e+17,3.07359e+17,2.23305e+13,4.6051e+17
9.89552e+06,1.29644e+06,1.72431e+07,5.3484e+27,8.23181e+26,1.46259e+12,0.114182,9.70403e+34,0.03468,0.0746374,0.109484,6.91843e-41,1.52912e+17,3.06966e+17,2.22923e+13,4.599e+17
1.00013e+07,1.29531e+06,1.72356e+07,5.51883e+27,8.46319e+26,1.47825e+12,0.114287,9.66174e+34,0.03468,0.0746374,0.109484,6.91843e-41,1.5269e+17,3.06565e+17,2.22534e+13,4.59277e+17
1.01082e+07,1.29416e+06,1.72279e+07,5.69468e+27,8.70047e+26,1.49408e+12,0.114394,9.61872e+34,0.03468,0.0746374,0.109484,6.91843e-41,1.52464e+17,3.06155e+17,2.22137e+13,4.58641e+17
1.02085e+07,1.29307e+06,1.72206e+07,5.86299e+27,8.92616e+26,1.50893e+12,0.114496,9.5781e+34,0.03468,0.0746374,0.109484,6.91843e-41,1.52249e+17,3.05768e+17,2.21761e+13,4.58039e+17
1.03099e+07,1.29196e+06,1.72132e+07,6.03628e+27,9.15714e+26,1.52394e+12,0.1146,9.53685e+34,0.03468,0.0746374,0.109484,6.91843e-41,1.52031e+17,3.05373e+17,2.21378e+13,4.57426e+17
1.04123e+07,1.29082e+06,1.72056e+07,6.21468e+27,9.39348e+26,1.5391e+12,0.114707,9.49493e+34,0.03468,0.0746374,0.109484,6.91843e-41,1.51809e+17,3.0497e+17,2.20988e+13,4.56801e+17
1.05157e+07,1.28967e+06,1.71979e+07,6.39836e+27,9.63529e+26,1.55442e+12,0.114815,9.45236e+34,0.03468,0.0746374,0.109484,6.91843e-41,1.51582e+17,3.0456e+17,2.20591e+13,4.56164e+17
1.06203e+07,1.28849e+06,1.719e+07,6.58747e+27,9.88267e+26,1.5699e+12,0.114926,9.40912e+34,0.03468,0.0746374,0.109484,6.91843e-41,1.51351e+17,3.04142e+17,2.20187e+13,4.55516e+17
1.07259e+07,1.28729e+06,1.71819e+07,6.78216e+27,1.01357e+27,1.58554e+12,0.115039,9.3652e+34,0.03468,0.0746374,0.109484,6.91843e-41,1.51116e+17,3.03717e+17,2.19775e+13,4.54855e+17
1.08326e+07,1.28606e+06,1.71737e+07,6.98261e+27,1.03945e+27,1.60134e+12,0.115155,9.3206e+34,0.03468,0.0746374,0.109484,6.91843e-41,1.50877e+17,3.03283e+17,2.19356e+13,4.54181e+17
1.09404e+07,1.28482e+06,1.71654e+07,7.18899e+27,1.06592e+27,1.6173e+12,0.115273,9.27532e+34,0.03468,0.0746374,0.109484,6.91843e-41,1.50633e+17,3.02841e+17,2.18929e+13,4.53495e+17
1.10409e+07,1.28364e+06,1.71575e+07,7.3849e+27,1.09088e+27,1.63219e+12,0.115384,9.2329e+34,0.03468,0.0746374,0.109484,6.91843e-41,1.50403e+17,3.02425e+17,2.18528e+13,4.52851e+17
1.11423e+07,1.28245e+06,1.71495e+07,7.58615e+27,1.11636e+27,1.64721e+12,0.115498,9.18988e+34,0.03468,0.0746374,0.109484,6.91843e-41,1.5017e+17,3.02003e+17,2.1812e+13,4.52195e+17
1.12448e+07,1.28123e+06,1.71413e+07,7.79288e+27,1.14236e+27,1.66239e+12,0.115614,9.14625e+34,0.03468,0.0746374,0.109484,6.91843e-41,1.49933e+17,3.01573e+17,2.17705e+13,4.51527e+17
