X = 0.734
Y = 0.25
Z = 0.016
mu = 0.601142
Radius,Density,Temp,Mass,Lum,OptD,Kff,KH,Kes,PP,CNO,3a,Deg,Gas,Rad,TotPres
0,0,0,0,0,0,-nan,0,0.03468,0.11292,0.627115,3.22649e-39,0,0,0,0
1,1.46125e+06,1.91345e+07,6.12085e+06,4.52964e+06,126035,0.0862518,2.62879e+35,0.03468,0.11292,0.627115,3.22649e-39,1.86662e+17,3.83939e+17,3.38036e+13,5.70635e+17
100026,1.46124e+06,1.91345e+07,6.12566e+21,4.53309e+21,1.26068e+10,0.0862522,2.62873e+35,0.03468,0.11292,0.627115,3.22649e-39,1.86661e+17,3.83936e+17,3.38033e+13,5.70631e+17
200036,1.46122e+06,1.91344e+07,4.89926e+22,3.62527e+22,2.52115e+10,0.0862533,2.62857e+35,0.03468,0.11292,0.627115,3.22649e-39,1.86657e+17,3.83929e+17,3.38025e+13,5.7062e+17
300075,1.46119e+06,1.91342e+07,1.65383e+23,1.22362e+23,3.782e+10,0.0862552,2.62829e+35,0.03468,0.11292,0.627115,3.22649e-39,1.86651e+17,3.83917e+17,3.38011e+13,5.70602e+17
400340,1.46115e+06,1.91339e+07,3.92719e+23,2.90512e+23,5.0457e+10,0.0862579,2.62791e+35,0.03468,0.11292,0.627115,3.22649e-39,1.86642e+17,3.839e+17,3.37991e+13,5.70576e+17
500509,1.46109e+06,1.91335e+07,7.67397e+23,5.67553e+23,6.30818e+10,0.0862613,2.62741e+35,0.03468,0.11292,0.627115,3.22649e-39,1.8663e+17,3.83878e+17,3.37965e+13,5.70542e+17
600560,1.46103e+06,1.91331e+07,1.32569e+24,9.80191e+23,7.56918e+10,0.0862655,2.62681e+35,0.03468,0.11292,0.627115,3.22649e-39,1.86616e+17,3.83852e+17,3.37934e+13,5.70501e+17
700972,1.46095e+06,1.91326e+07,2.10795e+24,1.55808e+24,8.83474e+10,0.0862704,2.62609e+35,0.03468,0.11292,0.627115,3.22649e-39,1.86599e+17,3.83821e+17,3.37897e+13,5.70453e+17
801242,1.46085e+06,1.9132e+07,3.14799e+24,2.32597e+24,1.00985e+11,0.0862762,2.62526e+35,0.03468,0.11292,0.627115,3.22649e-39,1.86579e+17,3.83784e+17,3.37855e+13,5.70397e+17
901606,1.46075e+06,1.91313e+07,4.48511e+24,3.31256e+24,1.13635e+11,0.0862826,2.62432e+35,0.03468,0.11292,0.627115,3.22649e-39,1.86557e+17,3.83743e+17,3.37806e+13,5.70334e+17
1.00174e+06,1.46063e+06,1.91305e+07,6.15137e+24,4.54108e+24,1.26256e+11,0.0862899,2.62328e+35,0.03468,0.11292,0.627115,3.22649e-39,1.86532e+17,3.83697e+17,3.37752e+13,5.70263e+17
1.10225e+06,1.4605e+06,1.91297e+07,8.19446e+24,6.04622e+24,1.38923e+11,0.0862979,2.62212e+35,0.03468,0.11292,0.627115,3.22649e-39,1.86505e+17,3.83646e+17,3.37693e+13,5.70185e+17
1.20292e+06,1.46036e+06,1.91288e+07,1.06504e+25,7.85386e+24,1.51612e+11,0.0863067,2.62085e+35,0.03468,0.11292,0.627115,3.22649e-39,1.86474e+17,3.83591e+17,3.37627e+13,5.70099e+17
1.30302e+06,1.46021e+06,1.91278e+07,1.35357e+25,9.97544e+24,1.64228e+11,0.0863162,2.61947e+35,0.03468,0.11292,0.627115,3.22649e-39,1.86442e+17,3.8353e+17,3.37556e+13,5.70006e+17
1.40304e+06,1.46004e+06,1.91267e+07,1.68971e+25,1.24445e+25,1.76835e+11,0.0863265,2.61799e+35,0.03468,0.11292,0.627115,3.22649e-39,1.86407e+17,3.83465e+17,3.3748e+13,5.69905e+17
1.50399e+06,1.45986e+06,1.91255e+07,2.08115e+25,1.53164e+25,1.89559e+11,0.0863376,2.61638e+35,0.03468,0.11292,0.627115,3.22649e-39,1.86369e+17,3.83394e+17,3.37397e+13,5.69797e+17
1.605e+06,1.45967e+06,1.91242e+07,2.52905e+25,1.85986e+25,2.0229e+11,0.0863495,2.61466e+35,0.03468,0.11292,0.627115,3.22649e-39,1.86328e+17,3.83319e+17,3.37308e+13,5.6968e+17
1.70514e+06,1.45947e+06,1.91229e+07,3.03231e+25,2.22815e+25,2.14912e+11,0.0863621,2.61285e+35,0.03468,0.11292,0.627115,3.22649e-39,1.86285e+17,3.83239e+17,3.37215e+13,5.69558e+17
1.80612e+06,1.45925e+06,1.91215e+07,3.60328e+25,2.64541e+25,2.2764e+11,0.0863756,2.61091e+35,0.03468,0.11292,0.627115,3.22649e-39,1.86239e+17,3.83154e+17,3.37115e+13,5.69426e+17
1.90738e+06,1.45902e+06,1.912e+07,4.24356e+25,3.11262e+25,2.40404e+11,0.0863898,2.60886e+35,0.03468,0.11292,0.627115,3.22649e-39,1.8619e+17,3.83064e+17,3.37009e+13,5.69287e+17
2.00832e+06,1.45878e+06,1.91184e+07,4.95301e+25,3.62951e+25,2.53126e+11,0.0864048,2.60671e+35,0.03468,0.11292,0.627115,3.22649e-39,1.86139e+17,3.82969e+17,3.36897e+13,5.69141e+17
2.10986e+06,1.45853e+06,1.91167e+07,5.74235e+25,4.20365e+25,2.65925e+11,0.0864207,2.60443e+35,0.03468,0.11292,0.627115,3.22649e-39,1.86084e+17,3.82868e+17,3.36779e+13,5.68986e+17
2.20993e+06,1.45827e+06,1.9115e+07,6.59809e+25,4.825e+25,2.78539e+11,0.0864371,2.60207e+35,0.03468,0.11292,0.627115,3.22649e-39,1.86028e+17,3.82765e+17,3.36658e+13,5.68827e+17
2.3113e+06,1.45799e+06,1.91132e+07,7.54746e+25,5.51309e+25,2.91316e+11,0.0864546,2.59958e+35,0.03468,0.11292,0.627115,3.22649e-39,1.85969e+17,3.82655e+17,3.36529e+13,5.68657e+17
2.41191e+06,1.4577e+06,1.91113e+07,8.57559e+25,6.25686e+25,3.03998e+11,0.0864726,2.597e+35,0.03468,0.11292,0.627115,3.22649e-39,1.85907e+17,3.82541e+17,3.36395e+13,5.68482e+17
2.51315e+06,1.45739e+06,1.91093e+07,9.7002e+25,7.06882e+25,3.1676e+11,0.0864916,2.59429e+35,0.03468,0.11292,0.627115,3.22649e-39,1.85843e+17,3.82421e+17,3.36255e+13,5.68297e+17
2.61474e+06,1.45708e+06,1.91072e+07,1.09233e+26,7.95002e+25,3.29565e+11,0.0865114,2.59147e+35,0.03468,0.11292,0.627115,3.22649e-39,1.85775e+17,3.82296e+17,3.36108e+13,5.68105e+17
2.71637e+06,1.45675e+06,1.9105e+07,1.22455e+26,8.90064e+25,3.42377e+11,0.086532,2.58853e+35,0.03468,0.11292,0.627115,3.22649e-39,1.85705e+17,3.82166e+17,3.35956e+13,5.67905e+17
2.81775e+06,1.4564e+06,1.91028e+07,1.36665e+26,9.91992e+25,3.55156e+11,0.0865533,2.5855e+35,0.03468,0.11292,0.627115,3.22649e-39,1.85633e+17,3.82032e+17,3.35798e+13,5.67698e+17
2.91856e+06,1.45605e+06,1.91005e+07,1.51841e+26,1.10061e+26,3.67863e+11,0.0865753,2.58237e+35,0.03468,0.11292,0.627115,3.22649e-39,1.85558e+17,3.81893e+17,3.35636e+13,5.67485e+17
3.02072e+06,1.45568e+06,1.90981e+07,1.68325e+26,1.21829e+26,3.80741e+11,0.0865984,2.5791e+35,0.03468,0.11292,0.627115,3.22649e-39,1.8548e+17,3.81748e+17,3.35465e+13,5.67261e+17
3.12179e+06,1.4553e+06,1.90956e+07,1.85764e+26,1.34249e+26,3.93483e+11,0.086622,2.57575e+35,0.03468,0.11292,0.627115,3.22649e-39,1.85399e+17,3.81599e+17,3.35291e+13,5.67032e+17
3.22385e+06,1.45491e+06,1.9093e+07,2.04552e+26,1.47595e+26,4.06348e+11,0.0866467,2.57226e+35,0.03468,0.11292,0.627115,3.22649e-39,1.85316e+17,3.81444e+17,3.3511e+13,5.66793e+17
3.32427e+06,1.45451e+06,1.90904e+07,2.24232e+26,1.61538e+26,4.19008e+11,0.0866717,2.56873e+35,0.03468,0.11292,0.627115,3.22649e-39,1.85231e+17,3.81287e+17,3.34925e+13,5.66551e+17
3.42527e+06,1.4541e+06,1.90877e+07,2.45256e+26,1.76392e+26,4.31741e+11,0.0866977,2.56507e+35,0.03468,0.11292,0.627115,3.22649e-39,1.85143e+17,3.81124e+17,3.34734e+13,5.663e+17
3.52671e+06,1.45367e+06,1.90848e+07,2.6765e+26,1.9217e+26,4.44529e+11,0.0867245,2.56129e+35,0.03468,0.11292,0.627115,3.22649e-39,1.85052e+17,3.80955e+17,3.34537e+13,5.66041e+17
3.62845e+06,1.45323e+06,1.90819e+07,2.91436e+26,2.0888e+26,4.57356e+11,0.0867523,2.55739e+35,0.03468,0.11292,0.627115,3.22649e-39,1.84958e+17,3.80782e+17,3.34333e+13,5.65773e+17
3.73035e+06,1.45277e+06,1.90789e+07,3.16625e+26,2.26523e+26,4.70202e+11,0.0867809,2.55339e+35,0.03468,0.11292,0.627115,3.22649e-39,1.84862e+17,3.80603e+17,3.34124e+13,5.65498e+17
3.83225e+06,1.4523e+06,1.90759e+07,3.43222e+26,2.45095e+26,4.83049e+11,0.0868102,2.54927e+35,0.03468,0.11292,0.627115,3.22649e-39,1.84762e+17,3.80419e+17,3.33908e+13,5.65214e+17
3.934e+06,1.45182e+06,1.90727e+07,3.7122e+26,2.64583e+26,4.95877e+11,0.0868404,2.54507e+35,0.03468,0.11292,0.627115,3.22649e-39,1.84661e+17,3.8023e+17,3.33688e+13,5.64924e+17
4.03545e+06,1.45133e+06,1.90695e+07,4.00603e+26,2.84969e+26,5.08668e+11,0.0868712,2.54077e+35,0.03468,0.11292,0.627115,3.22649e-39,1.84557e+17,3.80037e+17,3.33462e+13,5.64628e+17
4.13643e+06,1.45083e+06,1.90662e+07,4.31345e+26,3.06228e+26,5.21399e+11,0.0869027,2.53639e+35,0.03468,0.11292,0.627115,3.22649e-39,1.84451e+17,3.79841e+17,3.33232e+13,5.64325e+17
4.23677e+06,1.45032e+06,1.90628e+07,4.63407e+26,3.28324e+26,5.3405e+11,0.0869348,2.53193e+35,0.03468,0.11292,0.627115,3.22649e-39,1.84343e+17,3.79641e+17,3.32998e+13,5.64017e+17
4.33956e+06,1.44979e+06,1.90593e+07,4.97851e+26,3.51981e+26,5.47011e+11,0.0869685,2.52727e+35,0.03468,0.11292,0.627115,3.22649e-39,1.8423e+17,3.79431e+17,3.32752e+13,5.63694e+17
4.44154e+06,1.44925e+06,1.90558e+07,5.33659e+26,3.76485e+26,5.59868e+11,0.0870027,2.52254e+35,0.03468,0.11292,0.627115,3.22649e-39,1.84115e+17,3.79218e+17,3.32503e+13,5.63366e+17
4.54252e+06,1.4487e+06,1.90522e+07,5.70762e+26,4.01784e+26,5.72601e+11,0.0870374,2.51776e+35,0.03468,0.11292,0.627115,3.22649e-39,1.83998e+17,3.79002e+17,3.32251e+13,5.63034e+17
4.64581e+06,1.44812e+06,1.90484e+07,6.10445e+26,4.2874e+26,5.85625e+11,0.0870737,2.51277e+35,0.03468,0.11292,0.627115,3.22649e-39,1.83877e+17,3.78777e+17,3.31987e+13,5.62687e+17
4.74791e+06,1.44754e+06,1.90446e+07,6.51425e+26,4.5647e+26,5.98499e+11,0.0871104,2.50774e+35,0.03468,0.11292,0.627115,3.22649e-39,1.83754e+17,3.78549e+17,3.31721e+13,5.62336e+17
4.84863e+06,1.44696e+06,1.90407e+07,6.93601e+26,4.84899e+26,6.112e+11,0.0871474,2.50268e+35,0.03468,0.11292,0.627115,3.22649e-39,1.8363e+17,3.7832e+17,3.31453e+13,5.61983e+17
4.95151e+06,1.44635e+06,1.90367e+07,7.38507e+26,5.15048e+26,6.24173e+11,0.087186,2.49741e+35,0.03468,0.11292,0.627115,3.22649e-39,1.83501e+17,3.78081e+17,3.31174e+13,5.61615e+17
5.05279e+06,1.44573e+06,1.90327e+07,7.84561e+26,5.45841e+26,6.36945e+11,0.0872248,2.49212e+35,0.03468,0.11292,0.627115,3.22649e-39,1.83372e+17,3.77841e+17,3.30893e+13,5.61245e+17
5.15617e+06,1.4451e+06,1.90285e+07,8.33487e+26,5.78419e+26,6.49982e+11,0.0872652,2.48663e+35,0.03468,0.11292,0.627115,3.22649e-39,1.83237e+17,3.77591e+17,3.30601e+13,5.60861e+17
5.25773e+06,1.44446e+06,1.90242e+07,8.83483e+26,6.11567e+26,6.6279e+11,0.0873058,2.48114e+35,0.03468,0.11292,0.627115,3.22649e-39,1.83102e+17,3.7734e+17,3.30309e+13,5.60475e+17
5.36132e+06,1.44379e+06,1.90199e+07,9.36477e+26,6.46551e+26,6.75853e+11,0.087348,2.47544e+35,0.03468,0.11292,0.627115,3.22649e-39,1.82962e+17,3.7708e+17,3.30005e+13,5.60075e+17
5.46286e+06,1.44313e+06,1.90155e+07,9.90429e+26,6.82009e+26,6.88658e+11,0.0873902,2.46975e+35,0.03468,0.11292,0.627115,3.22649e-39,1.82822e+17,3.7682e+17,3.29702e+13,5.59675e+17
5.56634e+06,1.44244e+06,1.9011e+07,1.04749e+27,7.19342e+26,7.0171e+11,0.087434,2.46387e+35,0.03468,0.11292,0.627115,3.22649e-39,1.82677e+17,3.76551e+17,3.29388e+13,5.5926e+17
5.66755e+06,1.44176e+06,1.90065e+07,1.10536e+27,7.5703e+26,7.14474e+11,0.0874776,2.45802e+35,0.03468,0.11292,0.627115,3.22649e-39,1.82532e+17,3.76282e+17,3.29074e+13,5.58847e+17
5.77062e+06,1.44105e+06,1.90018e+07,1.16642e+27,7.96615e+26,7.27474e+11,0.0875229,2.45197e+35,0.03468,0.11292,0.627115,3.22649e-39,1.82382e+17,3.76004e+17,3.2875e+13,5.5842e+17
5.87117e+06,1.44034e+06,1.89971e+07,1.2281e+27,8.36413e+26,7.40156e+11,0.0875679,2.44598e+35,0.03468,0.11292,0.627115,3.22649e-39,1.82234e+17,3.75729e+17,3.28429e+13,5.57995e+17
5.9735e+06,1.43961e+06,1.89923e+07,1.29305e+27,8.78115e+26,7.53062e+11,0.0876146,2.43979e+35,0.03468,0.11292,0.627115,3.22649e-39,1.8208e+17,3.75443e+17,3.28096e+13,5.57556e+17
6.07763e+06,1.43886e+06,1.89873e+07,1.36143e+27,9.21806e+26,7.66197e+11,0.0876629,2.4334e+35,0.03468,0.11292,0.627115,3.22649e-39,1.81921e+17,3.75148e+17,3.27752e+13,5.57101e+17
6.17896e+06,1.43811e+06,1.89824e+07,1.43022e+27,9.65537e+26,7.78977e+11,0.0877107,2.42709e+35,0.03468,0.11292,0.627115,3.22649e-39,1.81763e+17,3.74856e+17,3.27412e+13,5.56652e+17
6.28199e+06,1.43734e+06,1.89773e+07,1.50248e+27,1.01125e+27,7.91974e+11,0.0877601,2.42058e+35,0.03468,0.11292,0.627115,3.22649e-39,1.81601e+17,3.74554e+17,3.2706e+13,5.56188e+17
6.38677e+06,1.43654e+06,1.8972e+07,1.5784e+27,1.05901e+27,8.05191e+11,0.0878113,2.41388e+35,0.03468,0.11292,0.627115,3.22649e-39,1.81433e+17,3.74243e+17,3.26698e+13,5.55709e+17
6.48843e+06,1.43576e+06,1.89668e+07,1.65444e+27,1.10661e+27,8.18016e+11,0.0878618,2.40728e+35,0.03468,0.11292,0.627115,3.22649e-39,1.81268e+17,3.73936e+17,3.2634e+13,5.55236e+17
6.59174e+06,1.43495e+06,1.89615e+07,1.73414e+27,1.15623e+27,8.31048e+11,0.0879139,2.40049e+35,0.03468,0.11292,0.627115,3.22649e-39,1.81097e+17,3.73619e+17,3.25972e+13,5.54749e+17
6.69672e+06,1.43411e+06,1.8956e+07,1.81768e+27,1.20796e+27,8.44291e+11,0.0879678,2.3935e+35,0.03468,0.11292,0.627115,3.22649e-39,1.80922e+17,3.73293e+17,3.25592e+13,5.54247e+17
6.79827e+06,1.43329e+06,1.89505e+07,1.90099e+27,1.25925e+27,8.57103e+11,0.0880207,2.38666e+35,0.03468,0.11292,0.627115,3.22649e-39,1.80749e+17,3.72972e+17,3.25219e+13,5.53754e+17
6.90139e+06,1.43245e+06,1.89449e+07,1.98811e+27,1.3126e+27,8.70113e+11,0.0880753,2.37962e+35,0.03468,0.11292,0.627115,3.22649e-39,1.80571e+17,3.72642e+17,3.24835e+13,5.53246e+17
7.0061e+06,1.43157e+06,1.89392e+07,2.07922e+27,1.36807e+27,8.83324e+11,0.0881317,2.37239e+35,0.03468,0.11292,0.627115,3.22649e-39,1.80388e+17,3.72302e+17,3.2444e+13,5.52723e+17
7.10707e+06,1.43072e+06,1.89335e+07,2.16965e+27,1.42281e+27,8.96063e+11,0.0881868,2.36534e+35,0.03468,0.11292,0.627115,3.22649e-39,1.80209e+17,3.7197e+17,3.24054e+13,5.52211e+17
7.20952e+06,1.42985e+06,1.89277e+07,2.264e+27,1.4796e+27,9.08989e+11,0.0882436,2.3581e+35,0.03468,0.11292,0.627115,3.22649e-39,1.80025e+17,3.71628e+17,3.23657e+13,5.51685e+17
7.31347e+06,1.42894e+06,1.89218e+07,2.36246e+27,1.5385e+27,9.22106e+11,0.0883021,2.35067e+35,0.03468,0.11292,0.627115,3.22649e-39,1.79836e+17,3.71276e+17,3.23248e+13,5.51145e+17
7.41895e+06,1.42802e+06,1.89156e+07,2.4652e+27,1.5996e+27,9.35415e+11,0.0883624,2.34305e+35,0.03468,0.11292,0.627115,3.22649e-39,1.79642e+17,3.70915e+17,3.22829e+13,5.50589e+17
7.52031e+06,1.42711e+06,1.89096e+07,2.56666e+27,1.65956e+27,9.48205e+11,0.0884211,2.33565e+35,0.03468,0.11292,0.627115,3.22649e-39,1.79452e+17,3.70563e+17,3.2242e+13,5.50048e+17
7.62307e+06,1.42619e+06,1.89035e+07,2.67228e+27,1.7216e+27,9.61173e+11,0.0884815,2.32806e+35,0.03468,0.11292,0.627115,3.22649e-39,1.79258e+17,3.70202e+17,3.22001e+13,5.49492e+17
7.72727e+06,1.42523e+06,1.88972e+07,2.78226e+27,1.7858e+27,9.74322e+11,0.0885437,2.3203e+35,0.03468,0.11292,0.627115,3.22649e-39,1.79058e+17,3.69831e+17,3.21571e+13,5.48921e+17
7.83293e+06,1.42425e+06,1.88907e+07,2.89676e+27,1.85221e+27,9.87655e+11,0.0886076,2.31234e+35,0.03468,0.11292,0.627115,3.22649e-39,1.78854e+17,3.6945e+17,3.2113e+13,5.48336e+17
7.93407e+06,1.42331e+06,1.88844e+07,3.00922e+27,1.91702e+27,1.00042e+12,0.0886696,2.30465e+35,0.03468,0.11292,0.627115,3.22649e-39,1.78655e+17,3.69081e+17,3.20702e+13,5.47768e+17
8.03654e+06,1.42233e+06,1.88779e+07,3.12605e+27,1.98391e+27,1.01335e+12,0.0887333,2.29678e+35,0.03468,0.11292,0.627115,3.22649e-39,1.78452e+17,3.68703e+17,3.20264e+13,5.47186e+17
8.14036e+06,1.42134e+06,1.88713e+07,3.24741e+27,2.05295e+27,1.02646e+12,0.0887987,2.28874e+35,0.03468,0.11292,0.627115,3.22649e-39,1.78243e+17,3.68315e+17,3.19814e+13,5.4659e+17
8.24556e+06,1.42031e+06,1.88645e+07,3.37349e+27,2.12418e+27,1.03973e+12,0.0888659,2.28051e+35,0.03468,0.11292,0.627115,3.22649e-39,1.78029e+17,3.67917e+17,3.19354e+13,5.45978e+17
8.34583e+06,1.41933e+06,1.8858e+07,3.49662e+27,2.19328e+27,1.05239e+12,0.0889308,2.2726e+35,0.03468,0.11292,0.627115,3.22649e-39,1.77823e+17,3.67534e+17,3.1891e+13,5.45389e+17
8.44736e+06,1.41832e+06,1.88512e+07,3.62424e+27,2.26443e+27,1.0652e+12,0.0889974,2.26452e+35,0.03468,0.11292,0.627115,3.22649e-39,1.77612e+17,3.67141e+17,3.18456e+13,5.44785e+17
8.55015e+06,1.41728e+06,1.88444e+07,3.75652e+27,2.33767e+27,1.07818e+12,0.0890656,2.25627e+35,0.03468,0.11292,0.627115,3.22649e-39,1.77396e+17,3.6674e+17,3.17992e+13,5.44168e+17
8.65423e+06,1.41622e+06,1.88373e+07,3.89363e+27,2.41306e+27,1.09132e+12,0.0891356,2.24784e+35,0.03468,0.11292,0.627115,3.22649e-39,1.77175e+17,3.66328e+17,3.17516e+13,5.43535e+17
8.7596e+06,1.41514e+06,1.88301e+07,4.03574e+27,2.49064e+27,1.10462e+12,0.0892074,2.23924e+35,0.03468,0.11292,0.627115,3.22649e-39,1.76949e+17,3.65907e+17,3.1703e+13,5.42888e+17
8.86629e+06,1.41402e+06,1.88227e+07,4.18305e+27,2.57046e+27,1.11809e+12,0.089281,2.23046e+35,0.03468,0.11292,0.627115,3.22649e-39,1.76718e+17,3.65476e+17,3.16532e+13,5.42226e+17
8.96752e+06,1.41296e+06,1.88156e+07,4.32602e+27,2.64738e+27,1.13087e+12,0.0893518,2.22207e+35,0.03468,0.11292,0.627115,3.22649e-39,1.76496e+17,3.65063e+17,3.16055e+13,5.41591e+17
9.06994e+06,1.41187e+06,1.88083e+07,4.47388e+27,2.72635e+27,1.1438e+12,0.0894242,2.21351e+35,0.03468,0.11292,0.627115,3.22649e-39,1.76269e+17,3.64641e+17,3.15568e+13,5.40941e+17
9.17356e+06,1.41075e+06,1.88009e+07,4.62679e+27,2.80743e+27,1.15688e+12,0.0894984,2.20479e+35,0.03468,0.11292,0.627115,3.22649e-39,1.76037e+17,3.64209e+17,3.1507e+13,5.40278e+17
9.2784e+06,1.40962e+06,1.87933e+07,4.78493e+27,2.89065e+27,1.17012e+12,0.0895744,2.1959e+35,0.03468,0.11292,0.627115,3.22649e-39,1.758e+17,3.63768e+17,3.14561e+13,5.396e+17
9.38447e+06,1.40845e+06,1.87856e+07,4.94848e+27,2.97605e+27,1.18351e+12,0.0896522,2.18684e+35,0.03468,0.11292,0.627115,3.22649e-39,1.75558e+17,3.63317e+17,3.14041e+13,5.38907e+17
9.4846e+06,1.40734e+06,1.87781e+07,5.10616e+27,3.05777e+27,1.19616e+12,0.0897265,2.17823e+35,0.03468,0.11292,0.627115,3.22649e-39,1.75327e+17,3.62887e+17,3.13546e+13,5.38246e+17
9.58583e+06,1.4062e+06,1.87706e+07,5.26887e+27,3.14147e+27,1.20894e+12,0.0898025,2.16946e+35,0.03468,0.11292,0.627115,3.22649e-39,1.75092e+17,3.62449e+17,3.13041e+13,5.37572e+17
9.68817e+06,1.40505e+06,1.87628e+07,5.43676e+27,3.22717e+27,1.22186e+12,0.0898802,2.16055e+35,0.03468,0.11292,0.627115,3.22649e-39,1.74852e+17,3.62001e+17,3.12525e+13,5.36884e+17
9.79165e+06,1.40386e+06,1.87549e+07,5.61e+27,3.31491e+27,1.23493e+12,0.0899597,2.15147e+35,0.03468,0.11292,0.627115,3.22649e-39,1.74606e+17,3.61544e+17,3.11999e+13,5.36182e+17
9.89626e+06,1.40266e+06,1.87469e+07,5.78876e+27,3.40473e+27,1.24814e+12,0.090041,2.14224e+35,0.03468,0.11292,0.627115,3.22649e-39,1.74356e+17,3.61078e+17,3.11463e+13,5.35466e+17
1.0002e+07,1.40143e+06,1.87386e+07,5.97322e+27,3.49666e+27,1.2615e+12,0.0901241,2.13285e+35,0.03468,0.11292,0.627115,3.22649e-39,1.74101e+17,3.60603e+17,3.10916e+13,5.34735e+17
1.0109e+07,1.40017e+06,1.87302e+07,6.16355e+27,3.59074e+27,1.27501e+12,0.0902091,2.12329e+35,0.03468,0.11292,0.627115,3.22649e-39,1.73841e+17,3.60117e+17,3.10358e+13,5.33989e+17
1.02093e+07,1.39898e+06,1.87223e+07,6.34572e+27,3.68005e+27,1.28768e+12,0.0902898,2.11427e+35,0.03468,0.11292,0.627115,3.22649e-39,1.73594e+17,3.59657e+17,3.0983e+13,5.33283e+17
1.03107e+07,1.39776e+06,1.87141e+07,6.53327e+27,3.77126e+27,1.30049e+12,0.0903722,2.10511e+35,0.03468,0.11292,0.627115,3.22649e-39,1.73343e+17,3.59189e+17,3.09292e+13,5.32563e+17
1.04131e+07,1.39652e+06,1.87058e+07,6.72636e+27,3.8644e+27,1.31343e+12,0.0904563,2.0958e+35,0.03468,0.11292,0.627115,3.22649e-39,1.73087e+17,3.58712e+17,3.08745e+13,5.3183e+17
1.05166e+07,1.39526e+06,1.86974e+07,6.92516e+27,3.95949e+27,1.3265e+12,0.0905423,2.08634e+35,0.03468,0.11292,0.627115,3.22649e-39,1.72826e+17,3.58226e+17,3.08187e+13,5.31083e+17
1.06212e+07,1.39397e+06,1.86888e+07,7.12984e+27,4.05657e+27,1.33971e+12,0.09063,2.07674e+35,0.03468,0.11292,0.627115,3.22649e-39,1.72561e+17,3.5773e+17,3.07618e+13,5.30322e+17
1.07268e+07,1.39266e+06,1.868e+07,7.34057e+27,4.15565e+27,1.35306e+12,0.0907196,2.06699e+35,0.03468,0.11292,0.627115,3.22649e-39,1.7229e+17,3.57225e+17,3.0704e+13,5.29546e+17
1.08335e+07,1.39132e+06,1.8671e+07,7.55752e+27,4.25677e+27,1.36654e+12,0.0908112,2.05708e+35,0.03468,0.11292,0.627115,3.22649e-39,1.72015e+17,3.56711e+17,3.0645e+13,5.28756e+17
1.09414e+07,1.38996e+06,1.86618e+07,7.78089e+27,4.35994e+27,1.38017e+12,0.0909047,2.04702e+35,0.03468,0.11292,0.627115,3.22649e-39,1.71734e+17,3.56187e+17,3.0585e+13,5.27951e+17
1.10419e+07,1.38868e+06,1.86532e+07,7.99293e+27,4.45702e+27,1.39287e+12,0.0909928,2.0376e+35,0.03468,0.11292,0.627115,3.22649e-39,1.7147e+17,3.55694e+17,3.05286e+13,5.27194e+17
1.11434e+07,1.38737e+06,1.86445e+07,8.21075e+27,4.55589e+27,1.40569e+12,0.0910826,2.02805e+35,0.03468,0.11292,0.627115,3.22649e-39,1.71201e+17,3.55193e+17,3.04713e+13,5.26425e+17
1.12458e+07,1.38605e+06,1.86356e+07,8.4345e+27,4.65656e+27,1.41864e+12,0.0911742,2.01836e+35,0.03468,0.11292,0.627115,3.22649e-39,1.70928e+17,3.54683e+17,3.0413e+13,5.25642e+17
