X = 0.734
Y = 0.25
Z = 0.016
mu = 0.601142
Radius,Density,Temp,Mass,Lum,OptD,Kff,KH,Kes,PP,CNO,3a,Deg,Gas,Rad,TotPres
0,0,0,0,0,0,-nan,0,0.03468,0.00205085,1.04967e-05,1.42667e-49,0,0,0,0
1,154000,1.23285e+07,645074,1329.72,12806.5,0.0831588,1.63295e+33,0.03468,0.00205085,1.04967e-05,1.42667e-49,4.38921e+15,2.60706e+16,5.82541e+12,3.04656e+16
30001,154000,1.23285e+07,1.74187e+19,3.5906e+16,3.84207e+08,0.0831588,1.63295e+33,0.03468,0.00205085,1.04967e-05,1.42667e-49,4.38921e+15,2.60706e+16,5.82541e+12,3.04656e+16
70001,154000,1.23285e+07,2.2127e+20,4.56112e+17,8.96465e+08,0.0831589,1.63295e+33,0.03468,0.00205085,1.04967e-05,1.42667e-49,4.3892e+15,2.60705e+16,5.82541e+12,3.04656e+16
150001,154000,1.23285e+07,2.17716e+21,4.48787e+18,1.92098e+09,0.083159,1.63293e+33,0.03468,0.00205085,1.04967e-05,1.42667e-49,4.38919e+15,2.60705e+16,5.82539e+12,3.04655e+16
250001,153999,1.23284e+07,1.00794e+22,2.07768e+19,3.20163e+09,0.0831593,1.6329e+33,0.03468,0.00205085,1.04967e-05,1.42667e-49,4.38916e+15,2.60703e+16,5.82535e+12,3.04653e+16
350001,153998,1.23284e+07,2.76576e+22,5.70106e+19,4.48227e+09,0.0831597,1.63286e+33,0.03468,0.00205085,1.04967e-05,1.42667e-49,4.38912e+15,2.60701e+16,5.82529e+12,3.04651e+16
450001,153997,1.23284e+07,5.8782e+22,1.21166e+20,5.76291e+09,0.0831602,1.6328e+33,0.03468,0.00205085,1.04967e-05,1.42667e-49,4.38906e+15,2.60698e+16,5.82521e+12,3.04647e+16
550001,153995,1.23283e+07,1.07323e+23,2.21218e+20,7.04356e+09,0.083161,1.63273e+33,0.03468,0.00205085,1.04967e-05,1.42667e-49,4.38899e+15,2.60695e+16,5.82511e+12,3.04643e+16
650001,153994,1.23282e+07,1.7715e+23,3.65141e+20,8.3242e+09,0.0831618,1.63265e+33,0.03468,0.00205085,1.04967e-05,1.42667e-49,4.38891e+15,2.6069e+16,5.82498e+12,3.04637e+16
750001,153992,1.23282e+07,2.72133e+23,5.60907e+20,9.60484e+09,0.0831628,1.63254e+33,0.03468,0.00205085,1.04967e-05,1.42667e-49,4.38881e+15,2.60685e+16,5.82484e+12,3.04631e+16
850001,153989,1.23281e+07,3.96141e+23,8.16485e+20,1.08855e+10,0.0831639,1.63243e+33,0.03468,0.00205085,1.04967e-05,1.42667e-49,4.3887e+15,2.60679e+16,5.82468e+12,3.04624e+16
950001,153987,1.2328e+07,5.53043e+23,1.13984e+21,1.21661e+10,0.0831652,1.6323e+33,0.03468,0.00205085,1.04967e-05,1.42667e-49,4.38857e+15,2.60673e+16,5.8245e+12,3.04617e+16
1.05e+06,153984,1.23279e+07,7.46708e+23,1.53894e+21,1.34467e+10,0.0831666,1.63216e+33,0.03468,0.00205085,1.04967e-05,1.42667e-49,4.38843e+15,2.60665e+16,5.8243e+12,3.04608e+16
1.15e+06,153980,1.23278e+07,9.81004e+23,2.02175e+21,1.47274e+10,0.0831681,1.632e+33,0.03468,0.00205085,1.04967e-05,1.42667e-49,4.38827e+15,2.60657e+16,5.82407e+12,3.04598e+16
1.25e+06,153977,1.23276e+07,1.2598e+24,2.59621e+21,1.6008e+10,0.0831698,1.63183e+33,0.03468,0.00205084,1.04967e-05,1.42666e-49,4.3881e+15,2.60649e+16,5.82383e+12,3.04588e+16
1.35e+06,153973,1.23275e+07,1.58696e+24,3.27029e+21,1.72886e+10,0.0831717,1.63164e+33,0.03468,0.00205084,1.04967e-05,1.42666e-49,4.38792e+15,2.60639e+16,5.82357e+12,3.04576e+16
1.45e+06,153969,1.23273e+07,1.96635e+24,4.05193e+21,1.85692e+10,0.0831736,1.63144e+33,0.03468,0.00205084,1.04967e-05,1.42666e-49,4.38772e+15,2.60629e+16,5.82328e+12,3.04564e+16
1.55e+06,153964,1.23272e+07,2.40184e+24,4.94907e+21,1.98498e+10,0.0831758,1.63122e+33,0.03468,0.00205084,1.04967e-05,1.42666e-49,4.38751e+15,2.60618e+16,5.82298e+12,3.04551e+16
1.65e+06,153960,1.2327e+07,2.8973e+24,5.96966e+21,2.11304e+10,0.083178,1.63099e+33,0.03468,0.00205084,1.04966e-05,1.42665e-49,4.38729e+15,2.60606e+16,5.82265e+12,3.04537e+16
1.75e+06,153955,1.23268e+07,3.45659e+24,7.12162e+21,2.24111e+10,0.0831804,1.63075e+33,0.03468,0.00205084,1.04966e-05,1.42665e-49,4.38705e+15,2.60594e+16,5.82231e+12,3.04523e+16
1.85e+06,153949,1.23266e+07,4.08356e+24,8.41289e+21,2.36917e+10,0.083183,1.63049e+33,0.03468,0.00205084,1.04966e-05,1.42663e-49,4.38679e+15,2.60581e+16,5.82194e+12,3.04507e+16
1.95e+06,153944,1.23264e+07,4.7821e+24,9.85139e+21,2.49722e+10,0.0831857,1.63022e+33,0.03468,0.00205084,1.04965e-05,1.42661e-49,4.38653e+15,2.60567e+16,5.82156e+12,3.0449e+16
2.05e+06,153938,1.23262e+07,5.55605e+24,1.1445e+22,2.62528e+10,0.0831885,1.62993e+33,0.03468,0.00205084,1.04965e-05,1.42661e-49,4.38625e+15,2.60552e+16,5.82115e+12,3.04473e+16
2.15e+06,153931,1.2326e+07,6.40928e+24,1.32017e+22,2.75334e+10,0.0831915,1.62963e+33,0.03468,0.00205083,1.04965e-05,1.4266e-49,4.38595e+15,2.60537e+16,5.82073e+12,3.04455e+16
2.25e+06,153925,1.23258e+07,7.34565e+24,1.51293e+22,2.8814e+10,0.0831946,1.62932e+33,0.03468,0.00205083,1.04964e-05,1.42659e-49,4.38564e+15,2.60521e+16,5.82028e+12,3.04436e+16
2.35e+06,153918,1.23255e+07,8.36903e+24,1.72358e+22,3.00946e+10,0.0831978,1.62899e+33,0.03468,0.00205083,1.04964e-05,1.42658e-49,4.38532e+15,2.60504e+16,5.81982e+12,3.04416e+16
2.45e+06,153911,1.23252e+07,9.48326e+24,1.9529e+22,3.13751e+10,0.0832012,1.62864e+33,0.03468,0.00205082,1.04963e-05,1.42654e-49,4.38498e+15,2.60487e+16,5.81933e+12,3.04395e+16
2.55e+06,153904,1.2325e+07,1.06922e+25,2.20168e+22,3.26557e+10,0.0832047,1.62829e+33,0.03468,0.00205081,1.04961e-05,1.42649e-49,4.38463e+15,2.60469e+16,5.81882e+12,3.04373e+16
2.65e+06,153896,1.23247e+07,1.19997e+25,2.4707e+22,3.39362e+10,0.0832084,1.62791e+33,0.03468,0.00205082,1.04961e-05,1.4265e-49,4.38426e+15,2.6045e+16,5.8183e+12,3.04351e+16
2.75e+06,153888,1.23244e+07,1.34097e+25,2.76076e+22,3.52168e+10,0.0832122,1.62753e+33,0.03468,0.00205081,1.04961e-05,1.42648e-49,4.38388e+15,2.6043e+16,5.81775e+12,3.04327e+16
2.85e+06,153880,1.23241e+07,1.49259e+25,3.07264e+22,3.64973e+10,0.0832162,1.62713e+33,0.03468,0.00205081,1.0496e-05,1.42645e-49,4.38349e+15,2.6041e+16,5.81718e+12,3.04303e+16
2.95e+06,153871,1.23238e+07,1.65523e+25,3.40712e+22,3.77778e+10,0.0832203,1.62671e+33,0.03468,0.0020508,1.04959e-05,1.42644e-49,4.38308e+15,2.60389e+16,5.8166e+12,3.04278e+16
3.05e+06,153862,1.23235e+07,1.82926e+25,3.76498e+22,3.90583e+10,0.0832246,1.62628e+33,0.03468,0.00205079,1.04957e-05,1.42638e-49,4.38266e+15,2.60367e+16,5.81599e+12,3.04252e+16
3.15e+06,153853,1.23231e+07,2.01508e+25,4.14701e+22,4.03389e+10,0.0832289,1.62584e+33,0.03468,0.00205078,1.04955e-05,1.42631e-49,4.38223e+15,2.60344e+16,5.81536e+12,3.04225e+16
3.25e+06,153844,1.23228e+07,2.21307e+25,4.55399e+22,4.16194e+10,0.0832335,1.62538e+33,0.03468,0.00205078,1.04956e-05,1.42633e-49,4.38178e+15,2.60321e+16,5.81471e+12,3.04197e+16
3.35e+06,153834,1.23224e+07,2.42361e+25,4.9867e+22,4.28998e+10,0.0832381,1.62491e+33,0.03468,0.00205078,1.04955e-05,1.4263e-49,4.38131e+15,2.60297e+16,5.81404e+12,3.04168e+16
3.45e+06,153824,1.23221e+07,2.64709e+25,5.44591e+22,4.41803e+10,0.083243,1.62442e+33,0.03468,0.00205077,1.04953e-05,1.42626e-49,4.38084e+15,2.60272e+16,5.81336e+12,3.04139e+16
3.55e+06,153813,1.23217e+07,2.88389e+25,5.9324e+22,4.54608e+10,0.0832479,1.62392e+33,0.03468,0.00205077,1.04953e-05,1.42624e-49,4.38035e+15,2.60247e+16,5.81265e+12,3.04109e+16
3.65e+06,153803,1.23213e+07,3.1344e+25,6.44696e+22,4.67413e+10,0.083253,1.62341e+33,0.03468,0.00205075,1.0495e-05,1.42617e-49,4.37984e+15,2.60221e+16,5.81192e+12,3.04077e+16
3.75e+06,153792,1.23209e+07,3.399e+25,6.99035e+22,4.80217e+10,0.0832582,1.62288e+33,0.03468,0.00205073,1.04947e-05,1.42607e-49,4.37932e+15,2.60194e+16,5.81117e+12,3.04045e+16
3.85e+06,153781,1.23205e+07,3.67807e+25,7.56335e+22,4.93022e+10,0.0832636,1.62234e+33,0.03468,0.00205074,1.04948e-05,1.4261e-49,4.37879e+15,2.60166e+16,5.8104e+12,3.04012e+16
3.95e+06,153769,1.23201e+07,3.97201e+25,8.16673e+22,5.05826e+10,0.0832692,1.62178e+33,0.03468,0.00205073,1.04947e-05,1.42606e-49,4.37824e+15,2.60138e+16,5.80961e+12,3.03979e+16
4.05e+06,153757,1.23197e+07,4.28118e+25,8.80126e+22,5.1863e+10,0.0832748,1.62121e+33,0.03468,0.00205072,1.04945e-05,1.42601e-49,4.37768e+15,2.60109e+16,5.80881e+12,3.03944e+16
4.15e+06,153745,1.23192e+07,4.60599e+25,9.46771e+22,5.31434e+10,0.0832806,1.62063e+33,0.03468,0.00205072,1.04944e-05,1.42598e-49,4.37711e+15,2.60079e+16,5.80798e+12,3.03908e+16
4.25e+06,153733,1.23188e+07,4.9468e+25,1.01669e+23,5.44238e+10,0.0832866,1.62003e+33,0.03468,0.0020507,1.04941e-05,1.42589e-49,4.37652e+15,2.60049e+16,5.80713e+12,3.03872e+16
4.35e+06,153720,1.23183e+07,5.304e+25,1.08995e+23,5.57042e+10,0.0832927,1.61942e+33,0.03468,0.00205068,1.04937e-05,1.42576e-49,4.37592e+15,2.60017e+16,5.80626e+12,3.03835e+16
4.45e+06,153707,1.23179e+07,5.67798e+25,1.16663e+23,5.69846e+10,0.0832989,1.61879e+33,0.03468,0.00205069,1.04938e-05,1.4258e-49,4.3753e+15,2.59986e+16,5.80537e+12,3.03797e+16
4.55e+06,153694,1.23174e+07,6.06912e+25,1.24681e+23,5.82649e+10,0.0833053,1.61815e+33,0.03468,0.00205068,1.04937e-05,1.42576e-49,4.37467e+15,2.59953e+16,5.80446e+12,3.03758e+16
4.65e+06,153680,1.23169e+07,6.47779e+25,1.33057e+23,5.95453e+10,0.0833118,1.6175e+33,0.03468,0.00205067,1.04934e-05,1.4257e-49,4.37403e+15,2.5992e+16,5.80353e+12,3.03718e+16
4.75e+06,153666,1.23164e+07,6.90439e+25,1.41797e+23,6.08256e+10,0.0833185,1.61683e+33,0.03468,0.00205066,1.04933e-05,1.42566e-49,4.37337e+15,2.59885e+16,5.80258e+12,3.03677e+16
4.85e+06,153652,1.23159e+07,7.3493e+25,1.50911e+23,6.21059e+10,0.0833253,1.61615e+33,0.03468,0.00205064,1.0493e-05,1.42555e-49,4.3727e+15,2.59851e+16,5.80161e+12,3.03636e+16
4.95e+06,153638,1.23153e+07,7.81289e+25,1.60404e+23,6.33862e+10,0.0833322,1.61545e+33,0.03468,0.00205061,1.04924e-05,1.4254e-49,4.37201e+15,2.59815e+16,5.80062e+12,3.03593e+16
5.05e+06,153623,1.23148e+07,8.29555e+25,1.70286e+23,6.46665e+10,0.0833393,1.61474e+33,0.03468,0.00205062,1.04926e-05,1.42545e-49,4.37131e+15,2.59779e+16,5.79961e+12,3.0355e+16
5.15e+06,153608,1.23142e+07,8.79766e+25,1.80563e+23,6.59468e+10,0.0833465,1.61402e+33,0.03468,0.00205061,1.04924e-05,1.4254e-49,4.3706e+15,2.59742e+16,5.79858e+12,3.03506e+16
5.25e+06,153593,1.23137e+07,9.3196e+25,1.91242e+23,6.72271e+10,0.0833539,1.61328e+33,0.03468,0.0020506,1.04922e-05,1.42533e-49,4.36987e+15,2.59704e+16,5.79753e+12,3.03461e+16
5.35e+06,153577,1.23131e+07,9.86176e+25,2.02332e+23,6.85073e+10,0.0833614,1.61253e+33,0.03468,0.00205059,1.0492e-05,1.42528e-49,4.36913e+15,2.59666e+16,5.79647e+12,3.03415e+16
5.45e+06,153561,1.23125e+07,1.04245e+26,2.1384e+23,6.97876e+10,0.0833691,1.61176e+33,0.03468,0.00205057,1.04916e-05,1.42516e-49,4.36837e+15,2.59627e+16,5.79538e+12,3.03368e+16
5.55e+06,153545,1.2312e+07,1.10082e+26,2.25774e+23,7.10678e+10,0.0833769,1.61098e+33,0.03468,0.00205053,1.0491e-05,1.42498e-49,4.3676e+15,2.59587e+16,5.79427e+12,3.03321e+16
5.65e+06,153528,1.23114e+07,1.16133e+26,2.3814e+23,7.2348e+10,0.0833848,1.61019e+33,0.03468,0.00205054,1.04912e-05,1.42504e-49,4.36682e+15,2.59546e+16,5.79314e+12,3.03272e+16
5.75e+06,153511,1.23107e+07,1.22401e+26,2.50946e+23,7.36282e+10,0.0833929,1.60938e+33,0.03468,0.00205053,1.0491e-05,1.42498e-49,4.36603e+15,2.59505e+16,5.79199e+12,3.03223e+16
5.85e+06,153494,1.23101e+07,1.2889e+26,2.642e+23,7.49083e+10,0.0834011,1.60856e+33,0.03468,0.00205052,1.04907e-05,1.42489e-49,4.36522e+15,2.59463e+16,5.79082e+12,3.03173e+16
5.95e+06,153477,1.23095e+07,1.35605e+26,2.77909e+23,7.61885e+10,0.0834095,1.60773e+33,0.03468,0.00205051,1.04906e-05,1.42484e-49,4.36439e+15,2.5942e+16,5.78963e+12,3.03122e+16
6.05e+06,153459,1.23089e+07,1.42547e+26,2.92081e+23,7.74686e+10,0.083418,1.60688e+33,0.03468,0.00205048,1.04901e-05,1.4247e-49,4.36355e+15,2.59377e+16,5.78842e+12,3.0307e+16
6.15e+06,153441,1.23082e+07,1.49723e+26,3.06722e+23,7.87488e+10,0.0834267,1.60602e+33,0.03468,0.00205044,1.04894e-05,1.4245e-49,4.3627e+15,2.59333e+16,5.78719e+12,3.03018e+16
6.25e+06,153423,1.23075e+07,1.57135e+26,3.2184e+23,8.00289e+10,0.0834355,1.60515e+33,0.03468,0.00205046,1.04896e-05,1.42456e-49,4.36184e+15,2.59288e+16,5.78594e+12,3.02964e+16
6.35e+06,153404,1.23069e+07,1.64786e+26,3.37443e+23,8.1309e+10,0.0834444,1.60426e+33,0.03468,0.00205045,1.04894e-05,1.4245e-49,4.36096e+15,2.59242e+16,5.78468e+12,3.0291e+16
6.45e+06,153386,1.23062e+07,1.72682e+26,3.53537e+23,8.2589e+10,0.0834535,1.60336e+33,0.03468,0.00205043,1.04891e-05,1.4244e-49,4.36006e+15,2.59196e+16,5.78339e+12,3.02854e+16
6.55e+06,153367,1.23055e+07,1.80826e+26,3.70131e+23,8.38691e+10,0.0834627,1.60244e+33,0.03468,0.00205042,1.04889e-05,1.42435e-49,4.35916e+15,2.59149e+16,5.78208e+12,3.02798e+16
6.65e+06,153347,1.23048e+07,1.8922e+26,3.8723e+23,8.51491e+10,0.0834721,1.60151e+33,0.03468,0.00205039,1.04884e-05,1.42419e-49,4.35824e+15,2.59101e+16,5.78075e+12,3.02741e+16
6.75e+06,153327,1.23041e+07,1.9787e+26,4.04843e+23,8.64291e+10,0.0834816,1.60057e+33,0.03468,0.00205034,1.04876e-05,1.42396e-49,4.3573e+15,2.59053e+16,5.7794e+12,3.02684e+16
6.85e+06,153307,1.23033e+07,2.06779e+26,4.22977e+23,8.77091e+10,0.0834913,1.59961e+33,0.03468,0.00205036,1.04878e-05,1.42403e-49,4.35635e+15,2.59004e+16,5.77804e+12,3.02625e+16
6.95e+06,153287,1.23026e+07,2.15951e+26,4.41638e+23,8.89891e+10,0.0835011,1.59864e+33,0.03468,0.00205035,1.04876e-05,1.42396e-49,4.35539e+15,2.58954e+16,5.77665e+12,3.02566e+16
7.05e+06,153266,1.23018e+07,2.25389e+26,4.60835e+23,9.02691e+10,0.083511,1.59766e+33,0.03468,0.00205033,1.04872e-05,1.42385e-49,4.35442e+15,2.58903e+16,5.77524e+12,3.02505e+16
7.15e+06,153246,1.23011e+07,2.35098e+26,4.80573e+23,9.1549e+10,0.0835211,1.59666e+33,0.03468,0.00205031,1.0487e-05,1.42379e-49,4.35343e+15,2.58852e+16,5.77382e+12,3.02444e+16
7.25e+06,153224,1.23003e+07,2.4508e+26,5.00861e+23,9.28289e+10,0.0835313,1.59565e+33,0.03468,0.00205028,1.04864e-05,1.42361e-49,4.35243e+15,2.588e+16,5.77237e+12,3.02382e+16
7.35e+06,153203,1.22995e+07,2.55341e+26,5.21705e+23,9.41088e+10,0.0835417,1.59463e+33,0.03468,0.00205023,1.04856e-05,1.42336e-49,4.35141e+15,2.58747e+16,5.7709e+12,3.02319e+16
7.45e+06,153181,1.22987e+07,2.65883e+26,5.43112e+23,9.53887e+10,0.0835522,1.59359e+33,0.03468,0.00205025,1.04858e-05,1.42344e-49,4.35038e+15,2.58694e+16,5.76942e+12,3.02256e+16
7.55e+06,153159,1.22979e+07,2.7671e+26,5.6509e+23,9.66686e+10,0.0835629,1.59254e+33,0.03468,0.00205023,1.04856e-05,1.42336e-49,4.34934e+15,2.5864e+16,5.76791e+12,3.02191e+16
7.65e+06,153137,1.22971e+07,2.87826e+26,5.87645e+23,9.79484e+10,0.0835737,1.59148e+33,0.03468,0.00205021,1.04852e-05,1.42324e-49,4.34828e+15,2.58585e+16,5.76639e+12,3.02126e+16
7.75e+06,153114,1.22963e+07,2.99235e+26,6.10785e+23,9.92282e+10,0.0835846,1.5904e+33,0.03468,0.0020502,1.04849e-05,1.42317e-49,4.34721e+15,2.5853e+16,5.76484e+12,3.02059e+16
7.85e+06,153091,1.22955e+07,3.1094e+26,6.34516e+23,1.00508e+11,0.0835957,1.58931e+33,0.03468,0.00205017,1.04843e-05,1.42298e-49,4.34612e+15,2.58473e+16,5.76328e+12,3.01992e+16
7.95e+06,153068,1.22946e+07,3.22946e+26,6.58845e+23,1.01788e+11,0.0836069,1.58821e+33,0.03468,0.00205011,1.04833e-05,1.4227e-49,4.34503e+15,2.58416e+16,5.7617e+12,3.01924e+16
8.05e+06,153045,1.22938e+07,3.35256e+26,6.83779e+23,1.03068e+11,0.0836183,1.58709e+33,0.03468,0.00205013,1.04836e-05,1.42279e-49,4.34391e+15,2.58359e+16,5.76009e+12,3.01855e+16
8.15e+06,153021,1.22929e+07,3.47873e+26,7.09325e+23,1.04347e+11,0.0836298,1.58596e+33,0.03468,0.00205011,1.04834e-05,1.4227e-49,4.34279e+15,2.583e+16,5.75847e+12,3.01786e+16
8.25e+06,152997,1.2292e+07,3.60802e+26,7.35491e+23,1.05627e+11,0.0836415,1.58482e+33,0.03468,0.00205009,1.04829e-05,1.42257e-49,4.34165e+15,2.58241e+16,5.75683e+12,3.01715e+16
8.35e+06,152972,1.22911e+07,3.74046e+26,7.62282e+23,1.06907e+11,0.0836533,1.58367e+33,0.03468,0.00205007,1.04827e-05,1.42249e-49,4.3405e+15,2.58182e+16,5.75517e+12,3.01644e+16
8.45e+06,152948,1.22902e+07,3.87609e+26,7.89705e+23,1.08186e+11,0.0836653,1.5825e+33,0.03468,0.00205004,1.04819e-05,1.42228e-49,4.33933e+15,2.58121e+16,5.75348e+12,3.01572e+16
8.55e+06,152923,1.22893e+07,4.01494e+26,8.17768e+23,1.09466e+11,0.0836774,1.58132e+33,0.03468,0.00204998,1.04809e-05,1.42198e-49,4.33815e+15,2.5806e+16,5.75178e+12,3.01499e+16
8.65e+06,152897,1.22884e+07,4.15706e+26,8.46477e+23,1.10746e+11,0.0836896,1.58012e+33,0.03468,0.00205,1.04812e-05,1.42207e-49,4.33696e+15,2.57998e+16,5.75006e+12,3.01425e+16
8.75e+06,152872,1.22875e+07,4.30248e+26,8.75839e+23,1.12025e+11,0.083702,1.57891e+33,0.03468,0.00204998,1.04809e-05,1.42198e-49,4.33575e+15,2.57935e+16,5.74832e+12,3.0135e+16
8.85e+06,152846,1.22865e+07,4.45124e+26,9.0586e+23,1.13305e+11,0.0837145,1.57769e+33,0.03468,0.00204995,1.04804e-05,1.42184e-49,4.33453e+15,2.57872e+16,5.74656e+12,3.01275e+16
8.95e+06,152820,1.22856e+07,4.60337e+26,9.36547e+23,1.14584e+11,0.0837272,1.57646e+33,0.03468,0.00204994,1.04802e-05,1.42175e-49,4.3333e+15,2.57808e+16,5.74478e+12,3.01199e+16
9.05e+06,152794,1.22846e+07,4.75891e+26,9.67907e+23,1.15864e+11,0.08374,1.57521e+33,0.03468,0.0020499,1.04794e-05,1.42153e-49,4.33205e+15,2.57744e+16,5.74299e+12,3.01121e+16
9.15e+06,152767,1.22837e+07,4.91789e+26,9.99946e+23,1.17143e+11,0.0837529,1.57396e+33,0.03468,0.00204983,1.04783e-05,1.4212e-49,4.33079e+15,2.57678e+16,5.74117e+12,3.01043e+16
9.25e+06,152740,1.22827e+07,5.08037e+26,1.03267e+24,1.18423e+11,0.0837661,1.57268e+33,0.03468,0.00204985,1.04786e-05,1.4213e-49,4.32952e+15,2.57612e+16,5.73933e+12,3.00965e+16
9.35e+06,152713,1.22817e+07,5.24636e+26,1.06609e+24,1.19702e+11,0.0837793,1.5714e+33,0.03468,0.00204984,1.04783e-05,1.4212e-49,4.32823e+15,2.57545e+16,5.73748e+12,3.00885e+16
9.45e+06,152685,1.22807e+07,5.41592e+26,1.10021e+24,1.20982e+11,0.0837927,1.5701e+33,0.03468,0.00204981,1.04778e-05,1.42104e-49,4.32693e+15,2.57478e+16,5.7356e+12,3.00804e+16
9.55e+06,152657,1.22797e+07,5.58907e+26,1.13503e+24,1.22261e+11,0.0838062,1.56879e+33,0.03468,0.00204979,1.04775e-05,1.42096e-49,4.32562e+15,2.5741e+16,5.73371e+12,3.00723e+16
9.65e+06,152629,1.22786e+07,5.76585e+26,1.17056e+24,1.2354e+11,0.0838199,1.56747e+33,0.03468,0.00204975,1.04767e-05,1.42071e-49,4.32429e+15,2.57341e+16,5.73179e+12,3.00641e+16
9.75e+06,152601,1.22776e+07,5.9463e+26,1.20681e+24,1.2482e+11,0.0838337,1.56614e+33,0.03468,0.00204967,1.04755e-05,1.42036e-49,4.32295e+15,2.57271e+16,5.72986e+12,3.00558e+16
9.85e+06,152572,1.22766e+07,6.13045e+26,1.24379e+24,1.26099e+11,0.0838477,1.56479e+33,0.03468,0.0020497,1.04758e-05,1.42047e-49,4.32159e+15,2.57201e+16,5.72791e+12,3.00474e+16
9.95e+06,152543,1.22755e+07,6.31835e+26,1.2815e+24,1.27378e+11,0.0838618,1.56343e+33,0.03468,0.00204968,1.04755e-05,1.42036e-49,4.32023e+15,2.5713e+16,5.72593e+12,3.00389e+16
1.005e+07,152514,1.22744e+07,6.51002e+26,1.31994e+24,1.28657e+11,0.0838761,1.56206e+33,0.03468,0.00204965,1.04749e-05,1.42019e-49,4.31885e+15,2.57058e+16,5.72394e+12,3.00304e+16
1.015e+07,152484,1.22734e+07,6.70551e+26,1.35913e+24,1.29937e+11,0.0838905,1.56067e+33,0.03468,0.00204963,1.04746e-05,1.4201e-49,4.31745e+15,2.56986e+16,5.72193e+12,3.00218e+16
1.025e+07,152455,1.22723e+07,6.90486e+26,1.39907e+24,1.31216e+11,0.083905,1.55927e+33,0.03468,0.00204959,1.04737e-05,1.41984e-49,4.31604e+15,2.56913e+16,5.7199e+12,3.0013e+16
1.035e+07,152424,1.22712e+07,7.10809e+26,1.43977e+24,1.32495e+11,0.0839197,1.55786e+33,0.03468,0.00204951,1.04724e-05,1.41946e-49,4.31462e+15,2.56839e+16,5.71786e+12,3.00042e+16
1.045e+07,152394,1.22701e+07,7.31524e+26,1.48123e+24,1.33774e+11,0.0839346,1.55644e+33,0.03468,0.00204953,1.04728e-05,1.41958e-49,4.31319e+15,2.56765e+16,5.71579e+12,2.99954e+16
1.055e+07,152363,1.22689e+07,7.52635e+26,1.52345e+24,1.35053e+11,0.0839495,1.55501e+33,0.03468,0.00204951,1.04725e-05,1.41947e-49,4.31174e+15,2.56689e+16,5.7137e+12,2.99864e+16
1.065e+07,152332,1.22678e+07,7.74146e+26,1.56645e+24,1.36332e+11,0.0839647,1.55356e+33,0.03468,0.00204948,1.04719e-05,1.41929e-49,4.31028e+15,2.56614e+16,5.7116e+12,2.99774e+16
1.075e+07,152301,1.22667e+07,7.96061e+26,1.61023e+24,1.37611e+11,0.08398,1.5521e+33,0.03468,0.00204946,1.04715e-05,1.41919e-49,4.30881e+15,2.56537e+16,5.70947e+12,2.99682e+16
1.085e+07,152270,1.22655e+07,8.18382e+26,1.6548e+24,1.3889e+11,0.0839954,1.55063e+33,0.03468,0.00204941,1.04706e-05,1.41891e-49,4.30732e+15,2.5646e+16,5.70733e+12,2.9959e+16
1.095e+07,152238,1.22643e+07,8.41114e+26,1.70016e+24,1.40169e+11,0.0840109,1.54914e+33,0.03468,0.00204933,1.04692e-05,1.4185e-49,4.30582e+15,2.56382e+16,5.70517e+12,2.99497e+16
1.105e+07,152206,1.22632e+07,8.6426e+26,1.74632e+24,1.41448e+11,0.0840266,1.54765e+33,0.03468,0.00204936,1.04696e-05,1.41863e-49,4.30431e+15,2.56303e+16,5.70298e+12,2.99404e+16
