X = 0.734
Y = 0.25
Z = 0.016
mu = 0.601142
Radius,Density,Temp,Mass,Lum,OptD,Kff,KH,Kes,PP,CNO,3a,Deg,Gas,Rad,TotPres
0,0,0,0,0,0,-nan,0,0.03468,0.0157349,0.000156703,3.79083e-47,0,0,0,0
1,999368,1.28556e+07,4.18614e+06,66524.7,265791,0.265959,6.06333e+33,0.03468,0.0157349,0.000156703,3.79083e-47,9.90971e+16,1.76416e+17,6.88738e+12,2.7552e+17
100026,999364,1.28555e+07,4.18943e+21,6.65764e+19,2.65861e+10,0.265961,6.06321e+33,0.03468,0.0157349,0.000156703,3.79083e-47,9.90964e+16,1.76415e+17,6.88732e+12,2.75518e+17
200036,999352,1.28555e+07,3.35068e+22,5.32463e+20,5.31678e+10,0.265964,6.06284e+33,0.03468,0.0157349,0.000156703,3.79083e-47,9.90944e+16,1.76411e+17,6.88716e+12,2.75513e+17
300075,999332,1.28553e+07,1.13108e+23,1.79735e+21,7.97573e+10,0.26597,6.06223e+33,0.03468,0.0157349,0.000156703,3.79083e-47,9.90912e+16,1.76406e+17,6.88688e+12,2.75504e+17
400340,999304,1.28551e+07,2.68587e+23,4.26778e+21,1.06407e+11,0.265978,6.06137e+33,0.03468,0.0157349,0.000156703,3.79083e-47,9.90865e+16,1.76399e+17,6.88648e+12,2.75492e+17
500509,999268,1.28549e+07,5.24835e+23,8.33893e+21,1.33031e+11,0.265988,6.06026e+33,0.03468,0.0157349,0.000156703,3.79083e-47,9.90806e+16,1.76389e+17,6.88598e+12,2.75477e+17
600559,999225,1.28546e+07,9.06658e+23,1.44044e+22,1.59624e+11,0.266001,6.05891e+33,0.03468,0.0157349,0.000156703,3.79083e-47,9.90733e+16,1.76377e+17,6.88537e+12,2.75458e+17
700970,999173,1.28543e+07,1.44166e+24,2.29019e+22,1.86313e+11,0.266016,6.05731e+33,0.03468,0.0157349,0.000156703,3.79083e-47,9.90647e+16,1.76364e+17,6.88464e+12,2.75435e+17
801240,999113,1.28539e+07,2.15296e+24,3.41977e+22,2.12964e+11,0.266033,6.05546e+33,0.03468,0.0157349,0.000156703,3.79083e-47,9.90548e+16,1.76348e+17,6.8838e+12,2.75409e+17
901603,999045,1.28534e+07,3.06744e+24,4.87172e+22,2.3964e+11,0.266052,6.05337e+33,0.03468,0.0157349,0.000156703,3.79083e-47,9.90436e+16,1.76329e+17,6.88284e+12,2.7538e+17
1.00174e+06,998969,1.28529e+07,4.20701e+24,6.68065e+22,2.66256e+11,0.266074,6.05104e+33,0.03468,0.0157349,0.000156703,3.79083e-47,9.90311e+16,1.76309e+17,6.88178e+12,2.75347e+17
1.10225e+06,998885,1.28524e+07,5.60432e+24,8.89813e+22,2.92971e+11,0.266099,6.04845e+33,0.03468,0.0157349,0.000156703,3.79083e-47,9.90172e+16,1.76287e+17,6.8806e+12,2.75311e+17
1.20291e+06,998792,1.28518e+07,7.28397e+24,1.1563e+23,3.19729e+11,0.266125,6.04561e+33,0.03468,0.0157349,0.000156703,3.79083e-47,9.90019e+16,1.76262e+17,6.87931e+12,2.75271e+17
1.30301e+06,998692,1.28511e+07,9.25727e+24,1.46928e+23,3.46336e+11,0.266154,6.04254e+33,0.03468,0.0157349,0.000156703,3.79083e-47,9.89854e+16,1.76236e+17,6.87791e+12,2.75228e+17
1.40303e+06,998585,1.28504e+07,1.15562e+25,1.83378e+23,3.72922e+11,0.266185,6.03923e+33,0.03468,0.0157349,0.000156703,3.79083e-47,9.89676e+16,1.76207e+17,6.8764e+12,2.75182e+17
1.50398e+06,998468,1.28497e+07,1.42333e+25,2.2581e+23,3.99755e+11,0.266218,6.03565e+33,0.03468,0.0157349,0.000156703,3.79083e-47,9.89483e+16,1.76176e+17,6.87476e+12,2.75131e+17
1.60499e+06,998343,1.28488e+07,1.72966e+25,2.74345e+23,4.26603e+11,0.266254,6.03182e+33,0.03468,0.0157349,0.000156703,3.79083e-47,9.89277e+16,1.76143e+17,6.87301e+12,2.75077e+17
1.70512e+06,998211,1.2848e+07,2.07385e+25,3.28856e+23,4.5322e+11,0.266292,6.02777e+33,0.03468,0.0157349,0.000156703,3.79083e-47,9.89059e+16,1.76108e+17,6.87117e+12,2.7502e+17
1.8061e+06,998070,1.28471e+07,2.46434e+25,3.90675e+23,4.80062e+11,0.266333,6.02345e+33,0.03468,0.0157349,0.000156703,3.79083e-47,9.88827e+16,1.7607e+17,6.86919e+12,2.7496e+17
1.90736e+06,997921,1.28461e+07,2.90223e+25,4.59966e+23,5.06979e+11,0.266376,6.01887e+33,0.03468,0.0157349,0.000156703,3.79083e-47,9.8858e+16,1.7603e+17,6.8671e+12,2.74895e+17
2.00829e+06,997764,1.28451e+07,3.38744e+25,5.36707e+23,5.33808e+11,0.266421,6.01406e+33,0.03468,0.0157349,0.000156703,3.79083e-47,9.8832e+16,1.75988e+17,6.8649e+12,2.74827e+17
2.10983e+06,997597,1.2844e+07,3.92728e+25,6.22047e+23,5.608e+11,0.266469,6.00898e+33,0.03468,0.0157349,0.000156703,3.79083e-47,9.88046e+16,1.75944e+17,6.86257e+12,2.74756e+17
2.20989e+06,997426,1.28428e+07,4.51253e+25,7.14516e+23,5.87401e+11,0.266519,6.00373e+33,0.03468,0.0157349,0.000156703,3.79083e-47,9.87763e+16,1.75899e+17,6.86017e+12,2.74682e+17
2.31125e+06,997244,1.28417e+07,5.16182e+25,8.17045e+23,6.14346e+11,0.266572,5.99816e+33,0.03468,0.0157349,0.000156703,3.79083e-47,9.87462e+16,1.7585e+17,6.85762e+12,2.74603e+17
2.41186e+06,997055,1.28404e+07,5.86497e+25,9.28017e+23,6.41091e+11,0.266626,5.9924e+33,0.03468,0.0157349,0.000156703,3.79083e-47,9.87151e+16,1.758e+17,6.85498e+12,2.74522e+17
2.51309e+06,996857,1.28391e+07,6.63412e+25,1.04933e+24,6.68003e+11,0.266683,5.98636e+33,0.03468,0.0157349,0.000156703,3.79083e-47,9.86824e+16,1.75747e+17,6.85221e+12,2.74436e+17
2.61467e+06,996650,1.28378e+07,7.47058e+25,1.18118e+24,6.95007e+11,0.266743,5.98006e+33,0.03468,0.0157349,0.000156703,3.79083e-47,9.86483e+16,1.75692e+17,6.84932e+12,2.74347e+17
2.71629e+06,996435,1.28364e+07,8.37489e+25,1.32363e+24,7.22025e+11,0.266805,5.97351e+33,0.03468,0.0157349,0.000156703,3.79083e-47,9.86128e+16,1.75635e+17,6.84631e+12,2.74255e+17
2.81766e+06,996212,1.28349e+07,9.34669e+25,1.4766e+24,7.48974e+11,0.26687,5.96673e+33,0.03468,0.0157349,0.000156703,3.79083e-47,9.85761e+16,1.75576e+17,6.8432e+12,2.74159e+17
2.91846e+06,995983,1.28334e+07,1.03846e+26,1.63987e+24,7.75772e+11,0.266936,5.95976e+33,0.03468,0.0157349,0.000156703,3.79083e-47,9.85382e+16,1.75515e+17,6.83999e+12,2.7406e+17
3.02061e+06,995742,1.28318e+07,1.1512e+26,1.81708e+24,8.0293e+11,0.267006,5.95245e+33,0.03468,0.0157349,0.000156703,3.79083e-47,9.84985e+16,1.75451e+17,6.83663e+12,2.73956e+17
3.12167e+06,995496,1.28302e+07,1.27047e+26,2.00441e+24,8.29799e+11,0.267077,5.94498e+33,0.03468,0.0157349,0.000156703,3.79083e-47,9.84579e+16,1.75385e+17,6.83319e+12,2.7385e+17
3.22371e+06,995239,1.28285e+07,1.39896e+26,2.20607e+24,8.5693e+11,0.267152,5.9372e+33,0.03468,0.0157349,0.000156703,3.79083e-47,9.84156e+16,1.75317e+17,6.82961e+12,2.7374e+17
3.32413e+06,994978,1.28268e+07,1.53356e+26,2.41714e+24,8.83628e+11,0.267227,5.92931e+33,0.03468,0.0157349,0.000156703,3.79083e-47,9.83727e+16,1.75248e+17,6.82597e+12,2.73627e+17
3.42511e+06,994708,1.2825e+07,1.67734e+26,2.64243e+24,9.10479e+11,0.267305,5.92114e+33,0.03468,0.0157349,0.000156703,3.79083e-47,9.83282e+16,1.75176e+17,6.8222e+12,2.73511e+17
3.52654e+06,994429,1.28232e+07,1.8305e+26,2.88221e+24,9.37448e+11,0.267387,5.9127e+33,0.03468,0.0157349,0.000156703,3.79083e-47,9.82821e+16,1.75102e+17,6.8183e+12,2.73391e+17
3.62827e+06,994141,1.28213e+07,1.99317e+26,3.13665e+24,9.64497e+11,0.26747,5.904e+33,0.03468,0.0157349,0.000156703,3.79083e-47,9.82347e+16,1.75025e+17,6.81428e+12,2.73267e+17
3.73015e+06,993844,1.28194e+07,2.16545e+26,3.40586e+24,9.91588e+11,0.267557,5.89506e+33,0.03468,0.0157349,0.000156703,3.79083e-47,9.81858e+16,1.74946e+17,6.81014e+12,2.73139e+17
3.83203e+06,993539,1.28174e+07,2.34735e+26,3.68985e+24,1.01868e+12,0.267645,5.88588e+33,0.03468,0.0157349,0.000156703,3.79083e-47,9.81356e+16,1.74866e+17,6.80589e+12,2.73008e+17
3.93376e+06,993226,1.28153e+07,2.53883e+26,3.98851e+24,1.04573e+12,0.267736,5.87648e+33,0.03468,0.0157349,0.000156703,3.79083e-47,9.80841e+16,1.74782e+17,6.80154e+12,2.72873e+17
4.03519e+06,992906,1.28132e+07,2.73979e+26,4.30164e+24,1.07271e+12,0.267829,5.86688e+33,0.03468,0.0157349,0.000156703,3.79083e-47,9.80315e+16,1.74698e+17,6.79708e+12,2.72736e+17
4.13615e+06,992580,1.28111e+07,2.95003e+26,4.62891e+24,1.09955e+12,0.267925,5.8571e+33,0.03468,0.0157349,0.000156703,3.79083e-47,9.79778e+16,1.74611e+17,6.79254e+12,2.72596e+17
4.23647e+06,992248,1.28089e+07,3.16931e+26,4.96988e+24,1.12623e+12,0.268021,5.84716e+33,0.03468,0.0157349,0.000156703,3.79083e-47,9.79232e+16,1.74523e+17,6.78792e+12,2.72453e+17
4.33924e+06,991900,1.28066e+07,3.40488e+26,5.33581e+24,1.15356e+12,0.268123,5.83674e+33,0.03468,0.0157349,0.000156703,3.79083e-47,9.78659e+16,1.74431e+17,6.78307e+12,2.72303e+17
4.44119e+06,991546,1.28043e+07,3.64977e+26,5.71579e+24,1.18068e+12,0.268226,5.82618e+33,0.03468,0.0157349,0.000156703,3.79083e-47,9.78077e+16,1.74337e+17,6.77815e+12,2.72151e+17
4.54215e+06,991188,1.28019e+07,3.90353e+26,6.10909e+24,1.20753e+12,0.268331,5.81551e+33,0.03468,0.0157349,0.000156703,3.79083e-47,9.77489e+16,1.74242e+17,6.77317e+12,2.71997e+17
4.64541e+06,990813,1.27995e+07,4.17492e+26,6.52924e+24,1.23499e+12,0.268441,5.80436e+33,0.03468,0.0157349,0.000156703,3.79083e-47,9.76873e+16,1.74142e+17,6.76797e+12,2.71836e+17
4.74749e+06,990435,1.2797e+07,4.45519e+26,6.96262e+24,1.26214e+12,0.268551,5.79312e+33,0.03468,0.0157349,0.000156703,3.79083e-47,9.76252e+16,1.74042e+17,6.76271e+12,2.71674e+17
4.84818e+06,990054,1.27945e+07,4.74364e+26,7.40812e+24,1.28893e+12,0.268663,5.78181e+33,0.03468,0.0157349,0.000156703,3.79083e-47,9.75625e+16,1.73941e+17,6.75742e+12,2.7151e+17
4.95103e+06,989657,1.27919e+07,5.05076e+26,7.88187e+24,1.31628e+12,0.268779,5.77003e+33,0.03468,0.0157349,0.000156703,3.79083e-47,9.74973e+16,1.73836e+17,6.7519e+12,2.7134e+17
5.05228e+06,989257,1.27892e+07,5.36573e+26,8.36713e+24,1.34322e+12,0.268897,5.75823e+33,0.03468,0.0157349,0.000156703,3.79083e-47,9.74317e+16,1.7373e+17,6.74636e+12,2.71168e+17
5.15563e+06,988842,1.27865e+07,5.70034e+26,8.88199e+24,1.37071e+12,0.269019,5.74595e+33,0.03468,0.0157349,0.000156703,3.79083e-47,9.73635e+16,1.7362e+17,6.7406e+12,2.7099e+17
5.25716e+06,988425,1.27838e+07,6.04227e+26,9.40741e+24,1.39772e+12,0.269141,5.73368e+33,0.03468,0.0157349,0.000156703,3.79083e-47,9.72952e+16,1.7351e+17,6.73483e+12,2.70812e+17
5.36071e+06,987993,1.27809e+07,6.40471e+26,9.96361e+24,1.42527e+12,0.269268,5.72095e+33,0.03468,0.0157349,0.000156703,3.79083e-47,9.72242e+16,1.73395e+17,6.72883e+12,2.70626e+17
5.46221e+06,987560,1.27781e+07,6.77369e+26,1.05291e+25,1.45227e+12,0.269396,5.70825e+33,0.03468,0.0157349,0.000156703,3.79083e-47,9.71533e+16,1.73281e+17,6.72284e+12,2.70441e+17
5.56566e+06,987112,1.27751e+07,7.16393e+26,1.11263e+25,1.47979e+12,0.269528,5.6951e+33,0.03468,0.0157349,0.000156703,3.79083e-47,9.70798e+16,1.73162e+17,6.71663e+12,2.70248e+17
5.66683e+06,986665,1.27722e+07,7.5597e+26,1.17311e+25,1.50671e+12,0.26966,5.68203e+33,0.03468,0.0157349,0.000156703,3.79083e-47,9.70066e+16,1.73044e+17,6.71045e+12,2.70057e+17
5.76986e+06,986202,1.27691e+07,7.97733e+26,1.23685e+25,1.53412e+12,0.269796,5.6685e+33,0.03468,0.0157349,0.000156703,3.79083e-47,9.69307e+16,1.72921e+17,6.70405e+12,2.69859e+17
5.87038e+06,985743,1.27661e+07,8.39919e+26,1.30113e+25,1.56087e+12,0.269932,5.65511e+33,0.03468,0.0157349,0.000156703,3.79083e-47,9.68555e+16,1.728e+17,6.69769e+12,2.69662e+17
5.97266e+06,985267,1.2763e+07,8.84336e+26,1.36872e+25,1.58808e+12,0.270073,5.64127e+33,0.03468,0.0157349,0.000156703,3.79083e-47,9.67776e+16,1.72674e+17,6.69112e+12,2.69458e+17
6.07675e+06,984775,1.27597e+07,9.31102e+26,1.43977e+25,1.61578e+12,0.270218,5.62698e+33,0.03468,0.0157349,0.000156703,3.79083e-47,9.66971e+16,1.72544e+17,6.68433e+12,2.69248e+17
6.17802e+06,984288,1.27565e+07,9.78148e+26,1.51113e+25,1.64273e+12,0.270363,5.61288e+33,0.03468,0.0157349,0.000156703,3.79083e-47,9.66174e+16,1.72415e+17,6.67761e+12,2.69039e+17
6.28101e+06,983785,1.27532e+07,1.02757e+27,1.58599e+25,1.67014e+12,0.270512,5.59834e+33,0.03468,0.0157349,0.000156703,3.79083e-47,9.65352e+16,1.72282e+17,6.67067e+12,2.68824e+17
6.38574e+06,983266,1.27498e+07,1.07949e+27,1.6645e+25,1.69801e+12,0.270666,5.58334e+33,0.03468,0.0157349,0.000156703,3.79083e-47,9.64502e+16,1.72145e+17,6.66351e+12,2.68602e+17
6.48735e+06,982753,1.27464e+07,1.13149e+27,1.74301e+25,1.72505e+12,0.270819,5.56859e+33,0.03468,0.0157349,0.000156703,3.79083e-47,9.63665e+16,1.7201e+17,6.65645e+12,2.68383e+17
6.59061e+06,982225,1.27429e+07,1.186e+27,1.82517e+25,1.75254e+12,0.270976,5.55341e+33,0.03468,0.0157349,0.000156703,3.79083e-47,9.62801e+16,1.7187e+17,6.64917e+12,2.68157e+17
6.69553e+06,981680,1.27393e+07,1.24314e+27,1.91114e+25,1.78046e+12,0.271138,5.53778e+33,0.03468,0.0157349,0.000156703,3.79083e-47,9.61911e+16,1.71726e+17,6.64167e+12,2.67924e+17
6.79703e+06,981145,1.27358e+07,1.30011e+27,1.99671e+25,1.80748e+12,0.271298,5.52247e+33,0.03468,0.0157349,0.000156703,3.79083e-47,9.61037e+16,1.71585e+17,6.6343e+12,2.67696e+17
6.90009e+06,980593,1.27322e+07,1.3597e+27,2.08606e+25,1.83491e+12,0.271463,5.50673e+33,0.03468,0.0157349,0.000156703,3.79083e-47,9.60137e+16,1.7144e+17,6.62672e+12,2.6746e+17
7.00474e+06,980025,1.27284e+07,1.42201e+27,2.17933e+25,1.86277e+12,0.271633,5.49055e+33,0.03468,0.0157349,0.000156703,3.79083e-47,9.5921e+16,1.7129e+17,6.61892e+12,2.67217e+17
7.10565e+06,979469,1.27247e+07,1.48385e+27,2.27174e+25,1.88964e+12,0.271799,5.47477e+33,0.03468,0.0157349,0.000156703,3.79083e-47,9.58303e+16,1.71143e+17,6.61129e+12,2.6698e+17
7.20804e+06,978898,1.2721e+07,1.54838e+27,2.36799e+25,1.91689e+12,0.271971,5.45857e+33,0.03468,0.0157349,0.000156703,3.79083e-47,9.57372e+16,1.70993e+17,6.60344e+12,2.66737e+17
7.31193e+06,978310,1.27171e+07,1.61572e+27,2.46824e+25,1.94455e+12,0.272147,5.44195e+33,0.03468,0.0157349,0.000156703,3.79083e-47,9.56413e+16,1.70838e+17,6.59538e+12,2.66486e+17
7.41734e+06,977705,1.27131e+07,1.68599e+27,2.57265e+25,1.97262e+12,0.272329,5.4249e+33,0.03468,0.0157349,0.000156703,3.79083e-47,9.55428e+16,1.70679e+17,6.58709e+12,2.66228e+17
7.51863e+06,977116,1.27092e+07,1.75537e+27,2.67556e+25,1.99959e+12,0.272506,5.40833e+33,0.03468,0.0157349,0.000156703,3.79083e-47,9.54469e+16,1.70524e+17,6.57902e+12,2.65977e+17
7.62132e+06,976511,1.27052e+07,1.82761e+27,2.7825e+25,2.02693e+12,0.272688,5.39136e+33,0.03468,0.0157349,0.000156703,3.79083e-47,9.53485e+16,1.70364e+17,6.57074e+12,2.65719e+17
7.72545e+06,975890,1.27011e+07,1.90283e+27,2.89363e+25,2.05466e+12,0.272876,5.37397e+33,0.03468,0.0157349,0.000156703,3.79083e-47,9.52474e+16,1.70201e+17,6.56224e+12,2.65455e+17
7.83103e+06,975252,1.26969e+07,1.98113e+27,3.00909e+25,2.08278e+12,0.273068,5.35616e+33,0.03468,0.0157349,0.000156703,3.79083e-47,9.51436e+16,1.70033e+17,6.55352e+12,2.65183e+17
7.93209e+06,974633,1.26928e+07,2.05805e+27,3.12228e+25,2.10969e+12,0.273255,5.33894e+33,0.03468,0.0157349,0.000156703,3.79083e-47,9.50431e+16,1.6987e+17,6.54507e+12,2.6492e+17
8.03448e+06,973999,1.26886e+07,2.13795e+27,3.23963e+25,2.13696e+12,0.273447,5.32132e+33,0.03468,0.0157349,0.000156703,3.79083e-47,9.494e+16,1.69704e+17,6.53641e+12,2.6465e+17
8.13823e+06,973348,1.26842e+07,2.22095e+27,3.36128e+25,2.16459e+12,0.273645,5.30331e+33,0.03468,0.0157349,0.000156703,3.79083e-47,9.48343e+16,1.69533e+17,6.52753e+12,2.64374e+17
8.24334e+06,972681,1.26798e+07,2.30718e+27,3.48739e+25,2.19259e+12,0.273847,5.28488e+33,0.03468,0.0157349,0.000156703,3.79083e-47,9.4726e+16,1.69357e+17,6.51844e+12,2.6409e+17
8.34353e+06,972038,1.26756e+07,2.39139e+27,3.6103e+25,2.21928e+12,0.274043,5.26716e+33,0.03468,0.0157349,0.000156703,3.79083e-47,9.46216e+16,1.69188e+17,6.50967e+12,2.63817e+17
8.44498e+06,971379,1.26712e+07,2.47867e+27,3.73743e+25,2.2463e+12,0.274244,5.24906e+33,0.03468,0.0157349,0.000156703,3.79083e-47,9.45147e+16,1.69016e+17,6.5007e+12,2.63537e+17
8.54768e+06,970704,1.26667e+07,2.56914e+27,3.86892e+25,2.27366e+12,0.27445,5.23058e+33,0.03468,0.0157349,0.000156703,3.79083e-47,9.44053e+16,1.68838e+17,6.49152e+12,2.6325e+17
8.65166e+06,970013,1.26621e+07,2.66291e+27,4.00491e+25,2.30137e+12,0.274661,5.2117e+33,0.03468,0.0157349,0.000156703,3.79083e-47,9.42933e+16,1.68657e+17,6.48212e+12,2.62957e+17
8.75694e+06,969305,1.26574e+07,2.7601e+27,4.14555e+25,2.32942e+12,0.274877,5.19244e+33,0.03468,0.0157349,0.000156703,3.79083e-47,9.41786e+16,1.68472e+17,6.47251e+12,2.62657e+17
8.86353e+06,968580,1.26526e+07,2.86084e+27,4.29099e+25,2.35782e+12,0.275099,5.17276e+33,0.03468,0.0157349,0.000156703,3.79083e-47,9.40613e+16,1.68282e+17,6.46267e+12,2.62349e+17
8.96466e+06,967885,1.2648e+07,2.95862e+27,4.43184e+25,2.38477e+12,0.275312,5.15395e+33,0.03468,0.0157349,0.000156703,3.79083e-47,9.39488e+16,1.68099e+17,6.45325e+12,2.62055e+17
9.06698e+06,967174,1.26433e+07,3.05975e+27,4.57717e+25,2.41203e+12,0.275531,5.13477e+33,0.03468,0.0157349,0.000156703,3.79083e-47,9.38339e+16,1.67913e+17,6.44361e+12,2.61754e+17
9.1705e+06,966447,1.26385e+07,3.16433e+27,4.72713e+25,2.43962e+12,0.275754,5.11521e+33,0.03468,0.0157349,0.000156703,3.79083e-47,9.37164e+16,1.67723e+17,6.43377e+12,2.61446e+17
9.27524e+06,965704,1.26335e+07,3.27248e+27,4.88185e+25,2.46753e+12,0.275983,5.09528e+33,0.03468,0.0157349,0.000156703,3.79083e-47,9.35963e+16,1.67529e+17,6.42371e+12,2.61131e+17
9.3812e+06,964944,1.26285e+07,3.38433e+27,5.04147e+25,2.49577e+12,0.276218,5.07497e+33,0.03468,0.0157349,0.000156703,3.79083e-47,9.34736e+16,1.6733e+17,6.41344e+12,2.6081e+17
9.48122e+06,964220,1.26236e+07,3.49217e+27,5.195e+25,2.52243e+12,0.276442,5.05566e+33,0.03468,0.0157349,0.000156703,3.79083e-47,9.33566e+16,1.6714e+17,6.40365e+12,2.60503e+17
9.58234e+06,963480,1.26187e+07,3.60345e+27,5.35306e+25,2.54939e+12,0.276671,5.036e+33,0.03468,0.0157349,0.000156703,3.79083e-47,9.32372e+16,1.66947e+17,6.39367e+12,2.6019e+17
9.68457e+06,962725,1.26137e+07,3.71827e+27,5.51576e+25,2.57664e+12,0.276905,5.016e+33,0.03468,0.0157349,0.000156703,3.79083e-47,9.31155e+16,1.66749e+17,6.38348e+12,2.59871e+17
9.78792e+06,961953,1.26085e+07,3.83675e+27,5.68323e+25,2.60419e+12,0.277145,4.99564e+33,0.03468,0.0157349,0.000156703,3.79083e-47,9.29912e+16,1.66548e+17,6.37309e+12,2.59546e+17
9.89241e+06,961166,1.26033e+07,3.95901e+27,5.85561e+25,2.63205e+12,0.27739,4.97493e+33,0.03468,0.0157349,0.000156703,3.79083e-47,9.28644e+16,1.66342e+17,6.36249e+12,2.59213e+17
9.99806e+06,960362,1.25979e+07,4.08516e+27,6.03302e+25,2.66022e+12,0.27764,4.95385e+33,0.03468,0.0157349,0.000156703,3.79083e-47,9.2735e+16,1.66133e+17,6.35167e+12,2.58874e+17
1.01049e+07,959542,1.25925e+07,4.21534e+27,6.21561e+25,2.6887e+12,0.277896,4.93241e+33,0.03468,0.0157349,0.000156703,3.79083e-47,9.26029e+16,1.65919e+17,6.34064e+12,2.58528e+17
1.02051e+07,958764,1.25873e+07,4.33992e+27,6.38992e+25,2.71543e+12,0.278139,4.91216e+33,0.03468,0.0157349,0.000156703,3.79083e-47,9.24779e+16,1.65716e+17,6.3302e+12,2.582e+17
1.03064e+07,957972,1.2582e+07,4.46819e+27,6.56892e+25,2.74243e+12,0.278388,4.89159e+33,0.03468,0.0157349,0.000156703,3.79083e-47,9.23505e+16,1.65509e+17,6.31957e+12,2.57866e+17
1.04087e+07,957164,1.25766e+07,4.60025e+27,6.75274e+25,2.76971e+12,0.278641,4.87069e+33,0.03468,0.0157349,0.000156703,3.79083e-47,9.22208e+16,1.65299e+17,6.30874e+12,2.57526e+17
1.0512e+07,956340,1.25711e+07,4.73621e+27,6.94149e+25,2.79728e+12,0.2789,4.84946e+33,0.03468,0.0157349,0.000156703,3.79083e-47,9.20885e+16,1.65084e+17,6.29771e+12,2.57179e+17
1.06164e+07,955500,1.25655e+07,4.8762e+27,7.13531e+25,2.82513e+12,0.279165,4.8279e+33,0.03468,0.0157349,0.000156703,3.79083e-47,9.19538e+16,1.64866e+17,6.28647e+12,2.56826e+17
1.07219e+07,954645,1.25598e+07,5.02031e+27,7.3343e+25,2.85327e+12,0.279435,4.806e+33,0.03468,0.0157349,0.000156703,3.79083e-47,9.18166e+16,1.64643e+17,6.27503e+12,2.56466e+17
1.08285e+07,953772,1.25539e+07,5.16869e+27,7.5386e+25,2.8817e+12,0.27971,4.78375e+33,0.03468,0.0157349,0.000156703,3.79083e-47,9.16768e+16,1.64416e+17,6.26338e+12,2.56099e+17
1.09362e+07,952883,1.2548e+07,5.32145e+27,7.74835e+25,2.91043e+12,0.279992,4.76116e+33,0.03468,0.0157349,0.000156703,3.79083e-47,9.15343e+16,1.64185e+17,6.25151e+12,2.55726e+17
1.10365e+07,952046,1.25424e+07,5.46647e+27,7.9469e+25,2.93721e+12,0.280257,4.73999e+33,0.03468,0.0157349,0.000156703,3.79083e-47,9.14005e+16,1.63968e+17,6.24036e+12,2.55374e+17
1.11379e+07,951195,1.25367e+07,5.61544e+27,8.1503e+25,2.96425e+12,0.280528,4.71853e+33,0.03468,0.0157349,0.000156703,3.79083e-47,9.12643e+16,1.63747e+17,6.22902e+12,2.55017e+17
1.12402e+07,950328,1.25309e+07,5.76847e+27,8.35867e+25,2.99155e+12,0.280804,4.69676e+33,0.03468,0.0157349,0.000156703,3.79083e-47,9.11257e+16,1.63522e+17,6.21749e+12,2.54654e+17
1.13435e+07,949446,1.2525e+07,5.92567e+27,8.57211e+25,3.01911e+12,0.281085,4.67468e+33,0.03468,0.0157349,0.000156703,3.79083e-47,9.09848e+16,1.63293e+17,6.20577e+12,2.54284e+17
