X = 0.734
Y = 0.25
Z = 0.016
mu = 0.601142
Radius,Density,Temp,Mass,Lum,OptD,Kff,KH,Kes,PP,CNO,3a,Deg,Gas,Rad,TotPres
0,0,0,0,0,0,-nan,0,0.03468,0.000429405,4.87677e-09,6.13004e-57,0,0,0,0
1,71250,8.3946e+06,298451,60.875,13260.5,0.186112,3.4948e+31,0.03468,0.000429405,4.87677e-09,6.13004e-57,1.21477e+15,8.21307e+15,1.25225e+12,9.42909e+15
100009,71250,8.3946e+06,2.98534e+20,6.08919e+16,1.32617e+09,0.186112,3.49479e+31,0.03468,0.000429405,4.87677e-09,6.13004e-57,1.21477e+15,8.21306e+15,1.25225e+12,9.42908e+15
226378,71249.8,8.39459e+06,3.4624e+21,7.06222e+17,3.00189e+09,0.186113,3.49476e+31,0.03468,0.000429405,4.87677e-09,6.13004e-57,1.21476e+15,8.21303e+15,1.25224e+12,9.42904e+15
387801,71249.3,8.39457e+06,1.7406e+22,3.55024e+18,5.14243e+09,0.186113,3.49468e+31,0.03468,0.000429405,4.87677e-09,6.13004e-57,1.21475e+15,8.21296e+15,1.25223e+12,9.42896e+15
572703,71248.4,8.39454e+06,5.60605e+22,1.14343e+19,7.59431e+09,0.186114,3.49454e+31,0.03468,0.000429405,4.87677e-09,6.13004e-57,1.21472e+15,8.21283e+15,1.25221e+12,9.4288e+15
698810,71247.6,8.39451e+06,1.01846e+23,2.07725e+19,9.26651e+09,0.186115,3.49441e+31,0.03468,0.000429405,4.87677e-09,6.13004e-57,1.2147e+15,8.21271e+15,1.2522e+12,9.42866e+15
854000,71246.5,8.39447e+06,1.85881e+23,3.79115e+19,1.13244e+10,0.186116,3.49422e+31,0.03468,0.000429405,4.87677e-09,6.13004e-57,1.21467e+15,8.21253e+15,1.25217e+12,9.42845e+15
1.04472e+06,71244.7,8.3944e+06,3.4029e+23,6.9402e+19,1.38533e+10,0.186118,3.49394e+31,0.03468,0.000429405,4.87677e-09,6.13004e-57,1.21462e+15,8.21227e+15,1.25213e+12,9.42814e+15
1.27888e+06,71242.1,8.39431e+06,6.24211e+23,1.27301e+20,1.69582e+10,0.186121,3.49351e+31,0.03468,0.000429405,4.87677e-09,6.13004e-57,1.21454e+15,8.21187e+15,1.25207e+12,9.42766e+15
1.56621e+06,71238.1,8.39416e+06,1.14651e+24,2.33801e+20,2.0768e+10,0.186125,3.49286e+31,0.03468,0.000429405,4.87677e-09,6.13004e-57,1.21443e+15,8.21127e+15,1.25198e+12,9.42695e+15
1.91865e+06,71232.2,8.39394e+06,2.10763e+24,4.29747e+20,2.5441e+10,0.186131,3.49189e+31,0.03468,0.000429405,4.87677e-09,6.13004e-57,1.21426e+15,8.21036e+15,1.25185e+12,9.42588e+15
2.35084e+06,71223.2,8.39361e+06,3.87655e+24,7.90298e+20,3.1171e+10,0.18614,3.49043e+31,0.03468,0.000429405,4.87677e-09,6.13004e-57,1.21401e+15,8.20901e+15,1.25166e+12,9.42427e+15
2.88075e+06,71209.8,8.39311e+06,7.13254e+24,1.45371e+21,3.8196e+10,0.186154,3.48824e+31,0.03468,0.000429405,4.87677e-09,6.13004e-57,1.21362e+15,8.20697e+15,1.25136e+12,9.42185e+15
3.53041e+06,71189.6,8.39236e+06,1.31259e+25,2.67422e+21,4.68072e+10,0.186175,3.48495e+31,0.03468,0.000429405,4.87677e-09,6.13004e-57,1.21305e+15,8.20392e+15,1.25091e+12,9.41822e+15
4.32684e+06,71159.3,8.39124e+06,2.41577e+25,4.91896e+21,5.73616e+10,0.186207,3.48002e+31,0.03468,0.000429405,4.87677e-09,6.13004e-57,1.21219e+15,8.19933e+15,1.25025e+12,9.41277e+15
5.30318e+06,71113.8,8.38956e+06,4.44616e+25,9.0454e+21,7.02962e+10,0.186254,3.47263e+31,0.03468,0.000429405,4.87677e-09,6.13004e-57,1.2109e+15,8.19244e+15,1.24924e+12,9.40459e+15
6.50008e+06,71045.4,8.38703e+06,8.18245e+25,1.66251e+22,8.61453e+10,0.186326,3.46156e+31,0.03468,0.000429405,4.87677e-09,6.13004e-57,1.20896e+15,8.1821e+15,1.24774e+12,9.39231e+15
7.96745e+06,70942.9,8.38324e+06,1.5056e+26,3.05312e+22,1.05562e+11,0.186432,3.44502e+31,0.03468,0.000429405,4.87677e-09,6.13004e-57,1.20605e+15,8.16661e+15,1.24548e+12,9.37391e+15
9.76654e+06,70789.2,8.37756e+06,2.76957e+26,5.59988e+22,1.29343e+11,0.186591,3.42037e+31,0.03468,0.000429405,4.87677e-09,6.13004e-57,1.2017e+15,8.14339e+15,1.24211e+12,9.34633e+15
1.19727e+07,70558.9,8.36906e+06,5.09234e+26,1.02514e+23,1.58456e+11,0.186828,3.38374e+31,0.03468,0.000429405,4.87677e-09,6.13004e-57,1.19519e+15,8.10866e+15,1.23708e+12,9.30509e+15
1.46785e+07,70214.2,8.35637e+06,9.35663e+26,1.87129e+23,1.94077e+11,0.187181,3.32966e+31,0.03468,0.000429405,4.87677e-09,6.13004e-57,1.18548e+15,8.05681e+15,1.22959e+12,9.24352e+15
1.79983e+07,69699.6,8.33745e+06,1.71737e+27,3.40121e+23,2.37618e+11,0.187702,3.25047e+31,0.03468,0.000429405,4.87677e-09,6.13004e-57,1.17103e+15,7.97966e+15,1.2185e+12,9.15191e+15
2.20735e+07,68933.6,8.30941e+06,3.14714e+27,6.14256e+23,2.90764e+11,0.188466,3.136e+31,0.03468,0.000429405,4.87677e-09,6.13004e-57,1.14966e+15,7.86541e+15,1.20218e+12,9.01627e+15
2.70797e+07,67798.5,8.26809e+06,5.75349e+27,1.09889e+24,3.55484e+11,0.189566,2.97363e+31,0.03468,0.000429405,4.87677e-09,6.13004e-57,1.11828e+15,7.69743e+15,1.17845e+12,8.81689e+15
3.32365e+07,66128.3,8.20784e+06,1.04808e+28,1.93879e+24,4.34012e+11,0.191115,2.74969e+31,0.03468,0.000429405,4.87677e-09,6.13004e-57,1.07275e+15,7.4531e+15,1.14447e+12,8.52699e+15
4.08214e+07,63696.8,8.12136e+06,1.89902e+28,3.35245e+24,5.28721e+11,0.1932,2.45328e+31,0.03468,0.000429405,4.87677e-09,6.13004e-57,1.00782e+15,7.10341e+15,1.097e+12,8.11233e+15
5.01898e+07,60213.9,8.00026e+06,3.41357e+28,5.63317e+24,6.41783e+11,0.195771,2.08362e+31,0.03468,0.000429405,4.87677e-09,6.13004e-57,9.17655e+14,6.61487e+15,1.03302e+12,7.53356e+15
6.01898e+07,56052.5,7.86042e+06,5.64262e+28,8.5837e+24,7.56478e+11,0.198053,1.7153e+31,0.03468,0.000429405,4.87677e-09,6.13004e-57,8.14412e+14,6.05009e+15,9.62662e+11,6.86546e+15
7.01898e+07,51598.5,7.71745e+06,8.51973e+28,1.18656e+25,8.63648e+11,0.199303,1.39512e+31,0.03468,0.000429405,4.87677e-09,6.13004e-57,7.09436e+14,5.46803e+15,8.94509e+11,6.17836e+15
8.01898e+07,47013.9,7.57869e+06,1.20237e+29,1.52695e+25,9.62061e+11,0.198978,1.13107e+31,0.03468,0.000429405,4.87677e-09,6.13004e-57,6.07522e+14,4.89261e+15,8.31891e+11,5.50097e+15
9.01898e+07,42445.8,7.4502e+06,1.61022e+29,1.86193e+25,1.05075e+12,0.196663,9.21426e+30,0.03468,0.000429405,4.87677e-09,6.13004e-57,5.12362e+14,4.34234e+15,7.76895e+11,4.85548e+15
1.0019e+08,38018.7,7.33622e+06,2.06804e+29,2.17883e+25,1.12913e+12,0.192164,7.59063e+30,0.03468,0.000429405,4.87677e-09,6.13004e-57,4.2643e+14,3.82992e+15,7.3043e+11,4.25708e+15
1.1019e+08,33829.1,7.23893e+06,2.56705e+29,2.46997e+25,1.1971e+12,0.185554,6.34956e+30,0.03468,0.000429405,4.87677e-09,6.13004e-57,3.51024e+14,3.36268e+15,6.92448e+11,3.7144e+15
1.2019e+08,29944.3,7.15866e+06,3.09801e+29,2.73178e+25,1.25502e+12,0.177147,5.40348e+30,0.03468,0.000429405,4.87677e-09,6.13004e-57,2.86446e+14,2.94352e+15,6.62243e+11,3.23063e+15
1.3019e+08,26403.5,7.09431e+06,3.65198e+29,2.96356e+25,1.3036e+12,0.167419,4.67789e+30,0.03468,0.000429405,4.87677e-09,6.13004e-57,2.32249e+14,2.57212e+15,6.38749e+11,2.80501e+15
1.4019e+08,23221.6,7.04388e+06,4.22077e+29,3.16647e+25,1.34386e+12,0.156895,4.11419e+30,0.03468,0.000429405,4.87677e-09,6.13004e-57,1.87502e+14,2.24608e+15,6.20781e+11,2.4342e+15
1.5019e+08,20394.8,7.00505e+06,4.79728e+29,3.34271e+25,1.3769e+12,0.146066,3.66852e+30,0.03468,0.000429405,4.87677e-09,6.13004e-57,1.51026e+14,1.96178e+15,6.07205e+11,2.11342e+15
1.6019e+08,17905.6,6.97552e+06,5.37559e+29,3.49495e+25,1.40384e+12,0.135332,3.30911e+30,0.03468,0.000429405,4.87677e-09,6.13004e-57,1.21572e+14,1.71509e+15,5.97029e+11,1.83726e+15
1.7019e+08,15728.3,6.95322e+06,5.95096e+29,3.626e+25,1.42572e+12,0.124983,3.01333e+30,0.03468,0.000429405,4.87677e-09,6.13004e-57,9.79464e+13,1.50172e+15,5.89433e+11,1.60025e+15
1.8019e+08,13832.8,6.93646e+06,6.51972e+29,3.73858e+25,1.44345e+12,0.115207,2.76521e+30,0.03468,0.000429405,4.87677e-09,6.13004e-57,7.9074e+13,1.31755e+15,5.83771e+11,1.39721e+15
1.9019e+08,12187.6,6.92388e+06,7.07914e+29,3.83524e+25,1.45784e+12,0.106107,2.55349e+30,0.03468,0.000429405,4.87677e-09,6.13004e-57,6.40299e+13,1.15875e+15,5.79546e+11,1.22336e+15
2.0019e+08,10762.3,6.91442e+06,7.6273e+29,3.91824e+25,1.46952e+12,0.0977269,2.37018e+30,0.03468,0.000429405,4.87677e-09,6.13004e-57,5.20424e+13,1.02183e+15,5.76384e+11,1.07445e+15
2.1019e+08,9528.12,6.90728e+06,8.16289e+29,3.98961e+25,1.47903e+12,0.0900652,2.20951e+30,0.03468,0.000429405,4.87677e-09,6.13004e-57,4.24812e+13,9.03721e+14,5.74007e+11,9.46777e+14
2.2019e+08,8459.27,6.90187e+06,8.68514e+29,4.05108e+25,1.48681e+12,0.0830952,2.06727e+30,0.03468,0.000429405,4.87677e-09,6.13004e-57,3.48396e+13,8.01715e+14,5.72212e+11,8.37127e+14
2.3019e+08,7532.71,6.89775e+06,9.19365e+29,4.10414e+25,1.4932e+12,0.0767743,1.94031e+30,0.03468,0.000429405,4.87677e-09,6.13004e-57,2.87147e+13,7.13475e+14,5.70847e+11,7.42761e+14
2.4019e+08,6728.28,6.89459e+06,9.68833e+29,4.15008e+25,1.49846e+12,0.0710525,1.82624e+30,0.03468,0.000429405,4.87677e-09,6.13004e-57,2.37881e+13,6.36991e+14,5.69802e+11,6.61349e+14
2.5019e+08,6028.57,6.89216e+06,1.01693e+30,4.18998e+25,1.50282e+12,0.0658769,1.72319e+30,0.03468,0.000429405,4.87677e-09,6.13004e-57,1.98096e+13,5.70545e+14,5.68998e+11,5.90924e+14
2.6019e+08,5418.58,6.89027e+06,1.06369e+30,4.22474e+25,1.50645e+12,0.0611955,1.62966e+30,0.03468,0.000429405,4.87677e-09,6.13004e-57,1.65829e+13,5.12675e+14,5.68374e+11,5.29826e+14
2.7019e+08,4885.5,6.88879e+06,1.10914e+30,4.25512e+25,1.50949e+12,0.0569589,1.54444e+30,0.03468,0.000429405,4.87677e-09,6.13004e-57,1.3954e+13,4.62139e+14,5.67887e+11,4.76661e+14
2.8019e+08,4418.41,6.88763e+06,1.15334e+30,4.28179e+25,1.51205e+12,0.0531213,1.46653e+30,0.03468,0.000429405,4.87677e-09,6.13004e-57,1.18022e+13,4.17885e+14,5.67504e+11,4.30254e+14
2.9019e+08,4008.03,6.88671e+06,1.19634e+30,4.30526e+25,1.51421e+12,0.0496406,1.39508e+30,0.03468,0.000429405,4.87677e-09,6.13004e-57,1.00324e+13,3.79021e+14,5.672e+11,3.89621e+14
3.0019e+08,3646.47,6.88597e+06,1.23819e+30,4.32601e+25,1.51605e+12,0.0464792,1.32939e+30,0.03468,0.000429405,4.87677e-09,6.13004e-57,8.56984e+12,3.44793e+14,5.66958e+11,3.5393e+14
3.1019e+08,3327.01,6.88538e+06,1.27894e+30,4.34441e+25,1.51762e+12,0.0436029,1.26885e+30,0.03468,0.000429405,4.87677e-09,6.13004e-57,7.35545e+12,3.1456e+14,5.66764e+11,3.22482e+14
3.2019e+08,3043.96,6.88491e+06,1.31866e+30,4.36079e+25,1.51897e+12,0.0409817,1.21292e+30,0.03468,0.000429405,4.87677e-09,6.13004e-57,6.34235e+12,2.87778e+14,5.66608e+11,2.94687e+14
3.3019e+08,2792.45,6.88452e+06,1.35739e+30,4.37542e+25,1.52013e+12,0.0385885,1.16114e+30,0.03468,0.000429405,4.87677e-09,6.13004e-57,5.49324e+12,2.63986e+14,5.6648e+11,2.70045e+14
3.4019e+08,2568.36,6.8842e+06,1.3952e+30,4.38853e+25,1.52113e+12,0.0363996,1.11312e+30,0.03468,0.000429405,4.87677e-09,6.13004e-57,4.77834e+12,2.42789e+14,5.66376e+11,2.48134e+14
3.5019e+08,2368.13,6.88394e+06,1.43211e+30,4.40032e+25,1.522e+12,0.0343938,1.06849e+30,0.03468,0.000429405,4.87677e-09,6.13004e-57,4.17377e+12,2.23854e+14,5.66291e+11,2.28594e+14
3.6019e+08,2188.76,6.88372e+06,1.4682e+30,4.41096e+25,1.52279e+12,0.0325524,1.02692e+30,0.03468,0.000429405,4.87677e-09,6.13004e-57,3.66029e+12,2.06891e+14,5.66218e+11,2.11118e+14
3.7019e+08,2027.64,6.88353e+06,1.5035e+30,4.42059e+25,1.52352e+12,0.030859,9.88153e+29,0.03468,0.000429405,4.87677e-09,6.13004e-57,3.22233e+12,1.91656e+14,5.66153e+11,1.95445e+14
3.8019e+08,1882.55,6.88335e+06,1.53805e+30,4.42932e+25,1.5242e+12,0.0292987,9.51928e+29,0.03468,0.000429405,4.87677e-09,6.13004e-57,2.84727e+12,1.77937e+14,5.66097e+11,1.81351e+14
3.9019e+08,1751.56,6.8832e+06,1.5719e+30,4.43728e+25,1.52483e+12,0.0278584,9.18031e+29,0.03468,0.000429405,4.87677e-09,6.13004e-57,2.5248e+12,1.65553e+14,5.66047e+11,1.68644e+14
4.0019e+08,1633.02,6.88307e+06,1.60508e+30,4.44454e+25,1.52542e+12,0.0265267,8.86267e+29,0.03468,0.000429405,4.87677e-09,6.13004e-57,2.24649e+12,1.54346e+14,5.66003e+11,1.57158e+14
4.1019e+08,1525.49,6.88295e+06,1.63764e+30,4.45119e+25,1.52597e+12,0.0252931,8.56457e+29,0.03468,0.000429405,4.87677e-09,6.13004e-57,2.00541e+12,1.4418e+14,5.65963e+11,1.46752e+14
4.2019e+08,1427.73,6.88284e+06,1.6696e+30,4.4573e+25,1.52648e+12,0.0241486,8.28444e+29,0.03468,0.000429405,4.87677e-09,6.13004e-57,1.79582e+12,1.34938e+14,5.65928e+11,1.373e+14
4.3019e+08,1338.65,6.88275e+06,1.70101e+30,4.46291e+25,1.52696e+12,0.0230848,8.02083e+29,0.03468,0.000429405,4.87677e-09,6.13004e-57,1.61299e+12,1.26517e+14,5.65897e+11,1.28696e+14
4.4019e+08,1257.31,6.88266e+06,1.73188e+30,4.4681e+25,1.52741e+12,0.0220947,7.77245e+29,0.03468,0.000429405,4.87677e-09,6.13004e-57,1.45296e+12,1.18828e+14,5.65868e+11,1.20847e+14
4.5019e+08,1182.88,6.88258e+06,1.76224e+30,4.47289e+25,1.52783e+12,0.0211716,7.53811e+29,0.03468,0.000429405,4.87677e-09,6.13004e-57,1.31245e+12,1.11792e+14,5.65843e+11,1.1367e+14
4.6019e+08,1114.63,6.88251e+06,1.79214e+30,4.47733e+25,1.52823e+12,0.0203097,7.31676e+29,0.03468,0.000429405,4.87677e-09,6.13004e-57,1.18869e+12,1.05341e+14,5.6582e+11,1.07096e+14
4.7019e+08,1051.94,6.88245e+06,1.82158e+30,4.48145e+25,1.5286e+12,0.0195037,7.10743e+29,0.03468,0.000429405,4.87677e-09,6.13004e-57,1.07936e+12,9.94152e+13,5.658e+11,1.0106e+14
4.8019e+08,994.233,6.88239e+06,1.85059e+30,4.48529e+25,1.52896e+12,0.0187491,6.90924e+29,0.03468,0.000429405,4.87677e-09,6.13004e-57,9.82499e+11,9.39612e+13,5.65781e+11,9.55095e+13
4.9019e+08,941.029,6.88234e+06,1.8792e+30,4.48887e+25,1.52929e+12,0.0180414,6.72137e+29,0.03468,0.000429405,4.87677e-09,6.13004e-57,8.96444e+11,8.89323e+13,5.65764e+11,9.03945e+13
5.0019e+08,891.885,6.8823e+06,1.90743e+30,4.49221e+25,1.52961e+12,0.017377,6.54311e+29,0.03468,0.000429405,4.87677e-09,6.13004e-57,8.19784e+11,8.42874e+13,5.65748e+11,8.56729e+13
5.1019e+08,846.415,6.88225e+06,1.93529e+30,4.49534e+25,1.52991e+12,0.0167524,6.37378e+29,0.03468,0.000429405,4.87677e-09,6.13004e-57,7.51318e+11,7.99898e+13,5.65734e+11,8.13069e+13
5.2019e+08,804.276,6.88221e+06,1.96281e+30,4.49828e+25,1.5302e+12,0.0161644,6.21278e+29,0.03468,0.000429405,4.87677e-09,6.13004e-57,6.90017e+11,7.6007e+13,5.65722e+11,7.72627e+13
5.3019e+08,765.161,6.88218e+06,1.98999e+30,4.50104e+25,1.53047e+12,0.0156103,6.05953e+29,0.03468,0.000429405,4.87677e-09,6.13004e-57,6.34998e+11,7.23101e+13,5.6571e+11,7.35108e+13
5.4019e+08,728.797,6.88214e+06,2.01687e+30,4.50363e+25,1.53073e+12,0.0150875,5.91354e+29,0.03468,0.000429405,4.87677e-09,6.13004e-57,5.85503e+11,6.88733e+13,5.65699e+11,7.00245e+13
5.5019e+08,694.941,6.88211e+06,2.04345e+30,4.50608e+25,1.53098e+12,0.0145936,5.77432e+29,0.03468,0.000429405,4.87677e-09,6.13004e-57,5.40876e+11,6.56735e+13,5.65689e+11,6.67801e+13
5.6019e+08,663.374,6.88209e+06,2.06974e+30,4.50839e+25,1.53121e+12,0.0141266,5.64145e+29,0.03468,0.000429405,4.87677e-09,6.13004e-57,5.00552e+11,6.26902e+13,5.6568e+11,6.37564e+13
5.7019e+08,633.902,6.88206e+06,2.09577e+30,4.51057e+25,1.53144e+12,0.0136844,5.51452e+29,0.03468,0.000429405,4.87677e-09,6.13004e-57,4.64039e+11,5.99047e+13,5.65671e+11,6.09344e+13
5.8019e+08,606.346,6.88204e+06,2.12155e+30,4.51264e+25,1.53165e+12,0.0132654,5.39316e+29,0.03468,0.000429405,4.87677e-09,6.13004e-57,4.3091e+11,5.73005e+13,5.65664e+11,5.82971e+13
5.9019e+08,580.551,6.88202e+06,2.14708e+30,4.5146e+25,1.53186e+12,0.0128679,5.27705e+29,0.03468,0.000429405,4.87677e-09,6.13004e-57,4.00792e+11,5.48626e+13,5.65656e+11,5.5829e+13
6.0019e+08,556.371,6.882e+06,2.17237e+30,4.51646e+25,1.53206e+12,0.0124905,5.16585e+29,0.03468,0.000429405,4.87677e-09,6.13004e-57,3.73359e+11,5.25775e+13,5.6565e+11,5.35165e+13
6.1019e+08,533.68,6.88198e+06,2.19745e+30,4.51822e+25,1.53224e+12,0.0121318,5.05928e+29,0.03468,0.000429405,4.87677e-09,6.13004e-57,3.48326e+11,5.0433e+13,5.65644e+11,5.13469e+13
6.2019e+08,512.359,6.88196e+06,2.22232e+30,4.51991e+25,1.53243e+12,0.0117906,4.95708e+29,0.03468,0.000429405,4.87677e-09,6.13004e-57,3.25443e+11,4.8418e+13,5.65638e+11,4.93091e+13
6.3019e+08,492.303,6.88194e+06,2.24698e+30,4.52151e+25,1.5326e+12,0.0114657,4.85898e+29,0.03468,0.000429405,4.87677e-09,6.13004e-57,3.04489e+11,4.65226e+13,5.65633e+11,4.73927e+13
6.4019e+08,473.415,6.88193e+06,2.27146e+30,4.52304e+25,1.53277e+12,0.011156,4.76477e+29,0.03468,0.000429405,4.87677e-09,6.13004e-57,2.8527e+11,4.47376e+13,5.65628e+11,4.55885e+13
6.5019e+08,455.609,6.88191e+06,2.29575e+30,4.52449e+25,1.53293e+12,0.0108607,4.67422e+29,0.03468,0.000429405,4.87677e-09,6.13004e-57,2.67612e+11,4.30549e+13,5.65623e+11,4.38881e+13
6.6019e+08,438.806,6.8819e+06,2.31987e+30,4.52589e+25,1.53308e+12,0.0105788,4.58713e+29,0.03468,0.000429405,4.87677e-09,6.13004e-57,2.51365e+11,4.14669e+13,5.65619e+11,4.22838e+13
6.7019e+08,422.931,6.88189e+06,2.34382e+30,4.52722e+25,1.53323e+12,0.0103095,4.50332e+29,0.03468,0.000429405,4.87677e-09,6.13004e-57,2.36393e+11,3.99667e+13,5.65614e+11,4.07687e+13
6.8019e+08,407.92,6.88188e+06,2.36761e+30,4.5285e+25,1.53338e+12,0.010052,4.42262e+29,0.03468,0.000429405,4.87677e-09,6.13004e-57,2.22575e+11,3.85481e+13,5.65611e+11,3.93362e+13
6.9019e+08,393.712,6.88187e+06,2.39125e+30,4.52973e+25,1.53352e+12,0.00980571,4.34485e+29,0.03468,0.000429405,4.87677e-09,6.13004e-57,2.09805e+11,3.72053e+13,5.65607e+11,3.79807e+13
7.0019e+08,380.25,6.88186e+06,2.41475e+30,4.5309e+25,1.53365e+12,0.00956985,4.26987e+29,0.03468,0.000429405,4.87677e-09,6.13004e-57,1.97986e+11,3.59332e+13,5.65604e+11,3.66968e+13
7.1019e+08,367.486,6.88185e+06,2.43811e+30,4.53203e+25,1.53378e+12,0.00934387,4.19754e+29,0.03468,0.000429405,4.87677e-09,6.13004e-57,1.87033e+11,3.47269e+13,5.65601e+11,3.54795e+13
7.2019e+08,355.371,6.88184e+06,2.46134e+30,4.53312e+25,1.5339e+12,0.0091272,4.12772e+29,0.03468,0.000429405,4.87677e-09,6.13004e-57,1.7687e+11,3.3582e+13,5.65598e+11,3.43245e+13
7.3019e+08,343.862,6.88183e+06,2.48444e+30,4.53416e+25,1.53403e+12,0.00891932,4.06029e+29,0.03468,0.000429405,4.87677e-09,6.13004e-57,1.67427e+11,3.24944e+13,5.65595e+11,3.32275e+13
7.4019e+08,332.922,6.88182e+06,2.50742e+30,4.53516e+25,1.53414e+12,0.00871974,3.99513e+29,0.03468,0.000429405,4.87677e-09,6.13004e-57,1.58643e+11,3.14605e+13,5.65592e+11,3.21848e+13
7.5019e+08,322.512,6.88181e+06,2.53028e+30,4.53613e+25,1.53426e+12,0.00852801,3.93214e+29,0.03468,0.000429405,4.87677e-09,6.13004e-57,1.50462e+11,3.04768e+13,5.6559e+11,3.11928e+13
7.6019e+08,312.599,6.88181e+06,2.55303e+30,4.53707e+25,1.53437e+12,0.00834371,3.8712e+29,0.03468,0.000429405,4.87677e-09,6.13004e-57,1.42834e+11,2.954e+13,5.65588e+11,3.02485e+13
7.7019e+08,303.154,6.8818e+06,2.57568e+30,4.53797e+25,1.53447e+12,0.00816644,3.81223e+29,0.03468,0.000429405,4.87677e-09,6.13004e-57,1.35713e+11,2.86474e+13,5.65585e+11,2.93487e+13
7.8019e+08,294.146,6.88179e+06,2.59823e+30,4.53884e+25,1.53458e+12,0.00799584,3.75513e+29,0.03468,0.000429405,4.87677e-09,6.13004e-57,1.29059e+11,2.77961e+13,5.65583e+11,2.84908e+13
7.9019e+08,285.549,6.88179e+06,2.62068e+30,4.53968e+25,1.53468e+12,0.00783155,3.69983e+29,0.03468,0.000429405,4.87677e-09,6.13004e-57,1.22834e+11,2.69837e+13,5.65581e+11,2.76722e+13
8.0019e+08,277.339,6.88178e+06,2.64304e+30,4.54049e+25,1.53478e+12,0.00767327,3.64622e+29,0.03468,0.000429405,4.87677e-09,6.13004e-57,1.17005e+11,2.62079e+13,5.65579e+11,2.68905e+13
8.1019e+08,269.493,6.88178e+06,2.66532e+30,4.54128e+25,1.53487e+12,0.00752068,3.59425e+29,0.03468,0.000429405,4.87677e-09,6.13004e-57,1.1154e+11,2.54665e+13,5.65578e+11,2.61436e+13
8.2019e+08,261.99,6.88177e+06,2.6875e+30,4.54204e+25,1.53496e+12,0.00737351,3.54384e+29,0.03468,0.000429405,4.87677e-09,6.13004e-57,1.06412e+11,2.47574e+13,5.65576e+11,2.54294e+13
8.3019e+08,254.81,6.88177e+06,2.70961e+30,4.54278e+25,1.53505e+12,0.00723148,3.49492e+29,0.03468,0.000429405,4.87677e-09,6.13004e-57,1.01596e+11,2.40789e+13,5.65574e+11,2.47461e+13
8.4019e+08,247.935,6.88176e+06,2.73164e+30,4.5435e+25,1.53514e+12,0.00709436,3.44743e+29,0.03468,0.000429405,4.87677e-09,6.13004e-57,9.70689e+10,2.34292e+13,5.65573e+11,2.40918e+13
8.5019e+08,241.347,6.88176e+06,2.7536e+30,4.54419e+25,1.53522e+12,0.0069619,3.4013e+29,0.03468,0.000429405,4.87677e-09,6.13004e-57,9.28088e+10,2.28067e+13,5.65571e+11,2.34651e+13
8.6019e+08,235.032,6.88175e+06,2.77549e+30,4.54487e+25,1.53531e+12,0.00683389,3.35649e+29,0.03468,0.000429405,4.87677e-09,6.13004e-57,8.87966e+10,2.22099e+13,5.6557e+11,2.28643e+13
8.7019e+08,228.974,6.88175e+06,2.79731e+30,4.54552e+25,1.53539e+12,0.00671012,3.31293e+29,0.03468,0.000429405,4.87677e-09,6.13004e-57,8.50148e+10,2.16374e+13,5.65569e+11,2.2288e+13
8.8019e+08,223.159,6.88175e+06,2.81907e+30,4.54616e+25,1.53547e+12,0.00659039,3.27058e+29,0.03468,0.000429405,4.87677e-09,6.13004e-57,8.14471e+10,2.10879e+13,5.65568e+11,2.17349e+13
