X = 0.734
Y = 0.25
Z = 0.016
mu = 0.601142
Radius,Density,Temp,Mass,Lum,OptD,Kff,KH,Kes,PP,CNO,3a,Deg,Gas,Rad,TotPres, dLdr, dPdT
0,0,0,0,0,0,-nan,0,0.03468,0,0,0,0,0,0,0, 0,0
1,75150,1.38038e+07,314788,510.423,2606.2,0.0338826,3.15496e+33,0.03468,0.00157291,4.85702e-05,4.91065e-48,1.3276e+15,1.42446e+16,9.15567e+12,1.55813e+16, 1531.27,1.03335e+09
50031.6,75150,1.38038e+07,3.94231e+19,6.39239e+16,1.30392e+08,0.0338826,3.15496e+33,0.03468,0.00157291,4.85701e-05,4.91064e-48,1.3276e+15,1.42446e+16,9.15567e+12,1.55813e+16, 3.83301e+12,1.03335e+09
100477,75150,1.38038e+07,3.19314e+20,5.17762e+17,2.61863e+08,0.0338826,3.15496e+33,0.03468,0.00157291,4.85701e-05,4.91063e-48,1.3276e+15,1.42446e+16,9.15567e+12,1.55813e+16, 1.54591e+13,1.03335e+09
151159,75149.9,1.38038e+07,1.08723e+21,1.76292e+18,3.93951e+08,0.0338825,3.15496e+33,0.03468,0.00157291,4.857e-05,4.91061e-48,1.3276e+15,1.42446e+16,9.15567e+12,1.55813e+16, 3.4988e+13,1.03335e+09
201785,75149.9,1.38038e+07,2.58633e+21,4.19369e+18,5.25892e+08,0.0338825,3.15496e+33,0.03468,0.00157291,4.85699e-05,4.91059e-48,1.32759e+15,1.42445e+16,9.15566e+12,1.55813e+16, 6.23487e+13,1.03335e+09
252479,75149.8,1.38038e+07,5.06631e+21,8.21492e+18,6.5801e+08,0.0338825,3.15495e+33,0.03468,0.00157291,4.85697e-05,4.91055e-48,1.32759e+15,1.42445e+16,9.15566e+12,1.55813e+16, 9.76109e+13,1.03335e+09
303568,75149.7,1.38038e+07,8.80616e+21,1.4279e+19,7.9116e+08,0.0338825,3.15495e+33,0.03468,0.0015729,4.85695e-05,4.91051e-48,1.32759e+15,1.42445e+16,9.15565e+12,1.55813e+16, 1.41111e+14,1.03335e+09
354250,75149.6,1.38038e+07,1.39942e+22,2.26912e+19,9.23246e+08,0.0338825,3.15494e+33,0.03468,0.0015729,4.85693e-05,4.91046e-48,1.32758e+15,1.42445e+16,9.15565e+12,1.55812e+16, 1.92161e+14,1.03335e+09
405240,75149.4,1.38038e+07,2.09484e+22,3.39673e+19,1.05613e+09,0.0338825,3.15493e+33,0.03468,0.0015729,4.8569e-05,4.9104e-48,1.32758e+15,1.42445e+16,9.15564e+12,1.55812e+16, 2.51459e+14,1.03334e+09
456693,75149.3,1.38038e+07,2.99839e+22,4.8618e+19,1.19023e+09,0.0338824,3.15492e+33,0.03468,0.00157289,4.85687e-05,4.91033e-48,1.32758e+15,1.42444e+16,9.15563e+12,1.55812e+16, 3.19367e+14,1.03334e+09
507047,75149.1,1.38038e+07,4.10354e+22,6.65375e+19,1.32146e+09,0.0338824,3.15491e+33,0.03468,0.00157289,4.85684e-05,4.91026e-48,1.32757e+15,1.42444e+16,9.15563e+12,1.55811e+16, 3.93672e+14,1.03334e+09
557372,75148.9,1.38038e+07,5.45068e+22,8.83807e+19,1.45262e+09,0.0338824,3.1549e+33,0.03468,0.00157288,4.8568e-05,4.91018e-48,1.32757e+15,1.42443e+16,9.15562e+12,1.55811e+16, 4.75693e+14,1.03333e+09
609649,75148.7,1.38038e+07,7.13269e+22,1.15654e+20,1.58886e+09,0.0338823,3.15489e+33,0.03468,0.00157287,4.85676e-05,4.91009e-48,1.32756e+15,1.42443e+16,9.15561e+12,1.5581e+16, 5.69105e+14,1.03333e+09
660220,75148.4,1.38038e+07,9.05895e+22,1.46887e+20,1.72065e+09,0.0338823,3.15487e+33,0.03468,0.00157287,4.85671e-05,4.90999e-48,1.32755e+15,1.42443e+16,9.15559e+12,1.5581e+16, 6.67431e+14,1.03333e+09
711433,75148.2,1.38038e+07,1.13348e+23,1.83788e+20,1.85412e+09,0.0338823,3.15486e+33,0.03468,0.00157286,4.85666e-05,4.90988e-48,1.32754e+15,1.42442e+16,9.15558e+12,1.55809e+16, 7.74986e+14,1.03332e+09
762810,75147.9,1.38038e+07,1.39721e+23,2.26549e+20,1.98802e+09,0.0338822,3.15484e+33,0.03468,0.00157285,4.85661e-05,4.90977e-48,1.32754e+15,1.42441e+16,9.15557e+12,1.55808e+16, 8.90954e+14,1.03332e+09
813835,75147.6,1.38038e+07,1.69675e+23,2.75118e+20,2.121e+09,0.0338822,3.15482e+33,0.03468,0.00157284,4.85655e-05,4.90965e-48,1.32753e+15,1.42441e+16,9.15555e+12,1.55808e+16, 1.01412e+15,1.03331e+09
863958,75147.3,1.38038e+07,2.02995e+23,3.29144e+20,2.25162e+09,0.0338821,3.15481e+33,0.03468,0.00157284,4.8565e-05,4.90952e-48,1.32752e+15,1.4244e+16,9.15554e+12,1.55807e+16, 1.14288e+15,1.03331e+09
917169,75147,1.38038e+07,2.42859e+23,3.93779e+20,2.3903e+09,0.0338821,3.15479e+33,0.03468,0.00157283,4.85643e-05,4.90938e-48,1.32751e+15,1.42439e+16,9.15552e+12,1.55806e+16, 1.28797e+15,1.0333e+09
968819,75146.6,1.38038e+07,2.86243e+23,4.6412e+20,2.5249e+09,0.033882,3.15477e+33,0.03468,0.00157281,4.85636e-05,4.90923e-48,1.3275e+15,1.42439e+16,9.15551e+12,1.55805e+16, 1.43711e+15,1.0333e+09
1.02338e+06,75146.3,1.38038e+07,3.37376e+23,5.47025e+20,2.66709e+09,0.033882,3.15474e+33,0.03468,0.0015728,4.85629e-05,4.90907e-48,1.32749e+15,1.42438e+16,9.15549e+12,1.55804e+16, 1.60351e+15,1.03329e+09
1.07564e+06,75145.9,1.38038e+07,3.91746e+23,6.35179e+20,2.80328e+09,0.0338819,3.15472e+33,0.03468,0.00157279,4.85621e-05,4.9089e-48,1.32748e+15,1.42437e+16,9.15547e+12,1.55803e+16, 1.77144e+15,1.03329e+09
1.13057e+06,75145.4,1.38038e+07,4.54878e+23,7.37538e+20,2.94644e+09,0.0338818,3.15469e+33,0.03468,0.00157278,4.85613e-05,4.90872e-48,1.32746e+15,1.42436e+16,9.15545e+12,1.55802e+16, 1.95696e+15,1.03328e+09
1.1824e+06,75145,1.38037e+07,5.2035e+23,8.43691e+20,3.08151e+09,0.0338818,3.15467e+33,0.03468,0.00157277,4.85604e-05,4.90854e-48,1.32745e+15,1.42435e+16,9.15542e+12,1.55801e+16, 2.14048e+15,1.03327e+09
1.23661e+06,75144.5,1.38037e+07,5.95247e+23,9.65122e+20,3.22278e+09,0.0338817,3.15464e+33,0.03468,0.00157275,4.85595e-05,4.90834e-48,1.32744e+15,1.42434e+16,9.1554e+12,1.558e+16, 2.34121e+15,1.03326e+09
1.28688e+06,75144.1,1.38037e+07,6.70826e+23,1.08766e+21,3.35378e+09,0.0338816,3.15461e+33,0.03468,0.00157274,4.85586e-05,4.90815e-48,1.32742e+15,1.42433e+16,9.15538e+12,1.55799e+16, 2.53538e+15,1.03326e+09
1.33919e+06,75143.6,1.38037e+07,7.56e+23,1.22575e+21,3.4901e+09,0.0338816,3.15458e+33,0.03468,0.00157273,4.85577e-05,4.90794e-48,1.32741e+15,1.42432e+16,9.15535e+12,1.55798e+16, 2.74565e+15,1.03325e+09
1.39363e+06,75143.1,1.38037e+07,8.51989e+23,1.38138e+21,3.63196e+09,0.0338815,3.15455e+33,0.03468,0.00157271,4.85566e-05,4.90772e-48,1.32739e+15,1.42431e+16,9.15533e+12,1.55797e+16, 2.97336e+15,1.03324e+09
1.45028e+06,75142.5,1.38037e+07,9.60166e+23,1.55676e+21,3.77959e+09,0.0338814,3.15452e+33,0.03468,0.00157269,4.85555e-05,4.90748e-48,1.32738e+15,1.4243e+16,9.1553e+12,1.55795e+16, 3.21994e+15,1.03323e+09
1.51424e+06,75141.8,1.38037e+07,1.09289e+24,1.77193e+21,3.94628e+09,0.0338813,3.15448e+33,0.03468,0.00157267,4.85542e-05,4.90719e-48,1.32736e+15,1.42429e+16,9.15527e+12,1.55794e+16, 3.51016e+15,1.03321e+09
1.58427e+06,75141,1.38037e+07,1.25163e+24,2.02929e+21,4.12877e+09,0.0338812,3.15443e+33,0.03468,0.00157265,4.85527e-05,4.90686e-48,1.32733e+15,1.42427e+16,9.15523e+12,1.55792e+16, 3.84224e+15,1.03318e+09
1.69846e+06,75139.7,1.38037e+07,1.54221e+24,2.50038e+21,4.42632e+09,0.033881,3.15435e+33,0.03468,0.00157261,4.85501e-05,4.9063e-48,1.32729e+15,1.42424e+16,9.15516e+12,1.55789e+16, 4.41585e+15,1.03313e+09
1.86965e+06,75137.5,1.38036e+07,2.05711e+24,3.33509e+21,4.87243e+09,0.0338806,3.15422e+33,0.03468,0.00157255,4.85458e-05,4.90538e-48,1.32723e+15,1.4242e+16,9.15505e+12,1.55784e+16, 5.35053e+15,1.03306e+09
2.11096e+06,75134.1,1.38035e+07,2.96073e+24,4.7999e+21,5.50119e+09,0.0338801,3.15402e+33,0.03468,0.00157245,4.85391e-05,4.90393e-48,1.32713e+15,1.42413e+16,9.15488e+12,1.55775e+16, 6.81999e+15,1.03295e+09
2.43631e+06,75128.8,1.38034e+07,4.55134e+24,7.37811e+21,6.34891e+09,0.0338792,3.15371e+33,0.03468,0.00157229,4.85288e-05,4.9017e-48,1.32697e+15,1.42401e+16,9.15462e+12,1.55763e+16, 9.08269e+15,1.03278e+09
2.86155e+06,75120.7,1.38033e+07,7.37431e+24,1.19533e+22,7.45682e+09,0.033878,3.15323e+33,0.03468,0.00157205,4.85131e-05,4.89831e-48,1.32674e+15,1.42385e+16,9.15423e+12,1.55744e+16, 1.25268e+16,1.03258e+09
3.36155e+06,75109.6,1.38031e+07,1.19536e+25,1.93734e+22,8.75932e+09,0.0338763,3.15257e+33,0.03468,0.00157173,4.84915e-05,4.89363e-48,1.32641e+15,1.42361e+16,9.15368e+12,1.55717e+16, 1.72806e+16,1.03236e+09
3.86155e+06,75096.7,1.38029e+07,1.81183e+25,2.93604e+22,1.00616e+10,0.0338742,3.15181e+33,0.03468,0.00157135,4.84664e-05,4.88821e-48,1.32603e+15,1.42334e+16,9.15304e+12,1.55686e+16, 2.27939e+16,1.0321e+09
4.36155e+06,75082,1.38026e+07,2.61039e+25,4.22936e+22,1.13637e+10,0.0338719,3.15094e+33,0.03468,0.00157091,4.84378e-05,4.88204e-48,1.3256e+15,1.42304e+16,9.15232e+12,1.55651e+16, 2.90649e+16,1.03182e+09
4.86155e+06,75065.5,1.38023e+07,3.61451e+25,5.85513e+22,1.26654e+10,0.0338694,3.14996e+33,0.03468,0.00157043,4.84058e-05,4.87514e-48,1.32511e+15,1.42269e+16,9.1515e+12,1.55612e+16, 3.60913e+16,1.0315e+09
5.36155e+06,75047.2,1.38019e+07,4.84767e+25,7.85105e+22,1.39669e+10,0.0338665,3.14888e+33,0.03468,0.00156989,4.83704e-05,4.8675e-48,1.32457e+15,1.42231e+16,9.1506e+12,1.55569e+16, 4.38707e+16,1.03116e+09
5.86155e+06,75027.2,1.38016e+07,6.33329e+25,1.02547e+23,1.52681e+10,0.0338634,3.1477e+33,0.03468,0.00156931,4.83315e-05,4.85913e-48,1.32398e+15,1.42189e+16,9.14962e+12,1.55521e+16, 5.24004e+16,1.03079e+09
6.36155e+06,75005.4,1.38012e+07,8.09478e+25,1.31036e+23,1.65689e+10,0.03386,3.14641e+33,0.03468,0.00156866,4.82892e-05,4.85004e-48,1.32334e+15,1.42144e+16,9.14854e+12,1.55469e+16, 6.16774e+16,1.03039e+09
6.86155e+06,74981.8,1.38007e+07,1.01555e+26,1.64349e+23,1.78693e+10,0.0338563,3.14502e+33,0.03468,0.00156797,4.82436e-05,4.84023e-48,1.32265e+15,1.42095e+16,9.14738e+12,1.55413e+16, 7.16985e+16,1.02996e+09
7.36155e+06,74956.5,1.38002e+07,1.25387e+26,2.02858e+23,1.91692e+10,0.0338523,3.14352e+33,0.03468,0.00156723,4.81945e-05,4.8297e-48,1.3219e+15,1.42042e+16,9.14613e+12,1.55352e+16, 8.24601e+16,1.0295e+09
7.86155e+06,74929.3,1.37997e+07,1.52678e+26,2.46932e+23,2.04687e+10,0.0338481,3.14192e+33,0.03468,0.00156643,4.81421e-05,4.81846e-48,1.32111e+15,1.41985e+16,9.1448e+12,1.55288e+16, 9.39586e+16,1.02902e+09
8.36155e+06,74900.5,1.37992e+07,1.83659e+26,2.96939e+23,2.17678e+10,0.0338435,3.14021e+33,0.03468,0.00156559,4.80864e-05,4.80653e-48,1.32026e+15,1.41925e+16,9.14338e+12,1.55219e+16, 1.0619e+17,1.0285e+09
8.86155e+06,74869.8,1.37986e+07,2.18562e+26,3.53244e+23,2.30663e+10,0.0338387,3.13841e+33,0.03468,0.00156469,4.80273e-05,4.79389e-48,1.31936e+15,1.41861e+16,9.14187e+12,1.55146e+16, 1.1915e+17,1.02796e+09
9.36155e+06,74837.4,1.3798e+07,2.57618e+26,4.1621e+23,2.43642e+10,0.0338336,3.1365e+33,0.03468,0.00156374,4.79649e-05,4.78057e-48,1.31841e+15,1.41794e+16,9.14028e+12,1.55069e+16, 1.32834e+17,1.02739e+09
9.86155e+06,74803.3,1.37974e+07,3.01057e+26,4.86198e+23,2.56616e+10,0.0338282,3.13449e+33,0.03468,0.00156274,4.78992e-05,4.76657e-48,1.3174e+15,1.41722e+16,9.1386e+12,1.54988e+16, 1.47238e+17,1.02678e+09
1.03616e+07,74767.4,1.37967e+07,3.4911e+26,5.63567e+23,2.69584e+10,0.0338226,3.13237e+33,0.03468,0.00156169,4.78303e-05,4.75189e-48,1.31635e+15,1.41648e+16,9.13684e+12,1.54902e+16, 1.62355e+17,1.02616e+09
1.08616e+07,74729.7,1.3796e+07,4.02006e+26,6.48672e+23,2.82546e+10,0.0338167,3.13016e+33,0.03468,0.00156058,4.77581e-05,4.73655e-48,1.31525e+15,1.41569e+16,9.13499e+12,1.54813e+16, 1.78183e+17,1.0255e+09
1.13616e+07,74690.3,1.37953e+07,4.59973e+26,7.41868e+23,2.955e+10,0.0338104,3.12784e+33,0.03468,0.00155943,4.76827e-05,4.72055e-48,1.31409e+15,1.41487e+16,9.13305e+12,1.54719e+16, 1.94713e+17,1.02481e+09
1.18616e+07,74649.2,1.37945e+07,5.23239e+26,8.43503e+23,3.08448e+10,0.0338039,3.12543e+33,0.03468,0.00155823,4.76041e-05,4.70391e-48,1.31288e+15,1.41401e+16,9.13103e+12,1.54621e+16, 2.11942e+17,1.0241e+09
1.23616e+07,74606.3,1.37938e+07,5.92032e+26,9.53926e+23,3.21389e+10,0.0337971,3.12291e+33,0.03468,0.00155697,4.75223e-05,4.68662e-48,1.31163e+15,1.41312e+16,9.12893e+12,1.54519e+16, 2.29863e+17,1.02336e+09
1.28616e+07,74561.7,1.37929e+07,6.66577e+26,1.07348e+24,3.34322e+10,0.0337901,3.1203e+33,0.03468,0.00155567,4.74373e-05,4.66871e-48,1.31032e+15,1.41219e+16,9.12675e+12,1.54413e+16, 2.4847e+17,1.02259e+09
1.33616e+07,74515.3,1.37921e+07,7.471e+26,1.20251e+24,3.47247e+10,0.0337827,3.11758e+33,0.03468,0.00155432,4.73492e-05,4.65017e-48,1.30896e+15,1.41122e+16,9.12448e+12,1.54303e+16, 2.67757e+17,1.02179e+09
1.38616e+07,74467.3,1.37912e+07,8.33826e+26,1.34135e+24,3.60163e+10,0.0337751,3.11477e+33,0.03468,0.00155291,4.7258e-05,4.63103e-48,1.30756e+15,1.41022e+16,9.12213e+12,1.54189e+16, 2.87717e+17,1.02096e+09
1.43616e+07,74417.5,1.37903e+07,9.26979e+26,1.49034e+24,3.73072e+10,0.0337672,3.11186e+33,0.03468,0.00155146,4.71638e-05,4.61128e-48,1.3061e+15,1.40919e+16,9.11969e+12,1.54071e+16, 3.08343e+17,1.02011e+09
1.48616e+07,74366,1.37893e+07,1.02678e+27,1.64981e+24,3.85971e+10,0.033759,3.10885e+33,0.03468,0.00154996,4.70665e-05,4.59095e-48,1.30459e+15,1.40811e+16,9.11718e+12,1.53948e+16, 3.29629e+17,1.01923e+09
1.53616e+07,74312.8,1.37883e+07,1.13345e+27,1.82008e+24,3.98862e+10,0.0337505,3.10575e+33,0.03468,0.00154841,4.69662e-05,4.57004e-48,1.30304e+15,1.40701e+16,9.11458e+12,1.53822e+16, 3.51566e+17,1.01832e+09
1.58616e+07,74257.9,1.37873e+07,1.24722e+27,2.00148e+24,4.11743e+10,0.0337417,3.10255e+33,0.03468,0.00154681,4.68629e-05,4.54856e-48,1.30144e+15,1.40586e+16,9.1119e+12,1.53692e+16, 3.74148e+17,1.01738e+09
1.63616e+07,74201.3,1.37863e+07,1.3683e+27,2.19434e+24,4.24615e+10,0.0337326,3.09925e+33,0.03468,0.00154516,4.67567e-05,4.52652e-48,1.29978e+15,1.40468e+16,9.10914e+12,1.53557e+16, 3.97367e+17,1.01642e+09
1.68616e+07,74143,1.37852e+07,1.49691e+27,2.39896e+24,4.37476e+10,0.0337233,3.09586e+33,0.03468,0.00154347,4.66476e-05,4.50394e-48,1.29808e+15,1.40347e+16,9.1063e+12,1.53419e+16, 4.21215e+17,1.01543e+09
1.73616e+07,74083,1.37841e+07,1.63327e+27,2.61566e+24,4.50327e+10,0.0337136,3.09238e+33,0.03468,0.00154173,4.65355e-05,4.48082e-48,1.29633e+15,1.40222e+16,9.10338e+12,1.53277e+16, 4.45685e+17,1.01441e+09
1.78616e+07,74021.3,1.3783e+07,1.77759e+27,2.84475e+24,4.63168e+10,0.0337037,3.0888e+33,0.03468,0.00153994,4.64207e-05,4.45718e-48,1.29453e+15,1.40094e+16,9.10039e+12,1.5313e+16, 4.70767e+17,1.01336e+09
1.83616e+07,73958,1.37818e+07,1.9301e+27,3.08653e+24,4.75998e+10,0.0336935,3.08513e+33,0.03468,0.0015381,4.6303e-05,4.43304e-48,1.29269e+15,1.39962e+16,9.09731e+12,1.5298e+16, 4.96454e+17,1.01229e+09
1.88616e+07,73893,1.37806e+07,2.09101e+27,3.3413e+24,4.88817e+10,0.033683,3.08137e+33,0.03468,0.00153621,4.61825e-05,4.40839e-48,1.29079e+15,1.39827e+16,9.09415e+12,1.52826e+16, 5.22737e+17,1.01119e+09
1.93616e+07,73826.3,1.37794e+07,2.26052e+27,3.60937e+24,5.01624e+10,0.0336722,3.07752e+33,0.03468,0.00153428,4.60593e-05,4.38327e-48,1.28885e+15,1.39689e+16,9.09092e+12,1.52668e+16, 5.49607e+17,1.01007e+09
1.98616e+07,73758,1.37781e+07,2.43885e+27,3.89101e+24,5.1442e+10,0.0336611,3.07357e+33,0.03468,0.0015323,4.59334e-05,4.35766e-48,1.28687e+15,1.39547e+16,9.08761e+12,1.52506e+16, 5.77055e+17,1.00892e+09
2.03616e+07,73688.1,1.37768e+07,2.62622e+27,4.18652e+24,5.27203e+10,0.0336497,3.06954e+33,0.03468,0.00153028,4.58048e-05,4.3316e-48,1.28483e+15,1.39401e+16,9.08422e+12,1.52341e+16, 6.05073e+17,1.00774e+09
2.08616e+07,73616.4,1.37755e+07,2.82284e+27,4.49618e+24,5.39975e+10,0.033638,3.06542e+33,0.03468,0.00152821,4.56736e-05,4.3051e-48,1.28275e+15,1.39253e+16,9.08076e+12,1.52171e+16, 6.33651e+17,1.00653e+09
2.13616e+07,73543.2,1.37742e+07,3.0289e+27,4.82027e+24,5.52734e+10,0.033626,3.06121e+33,0.03468,0.00152609,4.55397e-05,4.27816e-48,1.28063e+15,1.39101e+16,9.07722e+12,1.51998e+16, 6.6278e+17,1.0053e+09
2.18616e+07,73468.3,1.37728e+07,3.24462e+27,5.15906e+24,5.6548e+10,0.0336138,3.05691e+33,0.03468,0.00152393,4.54034e-05,4.25079e-48,1.27845e+15,1.38945e+16,9.07361e+12,1.5182e+16, 6.92449e+17,1.00404e+09
2.23616e+07,73391.8,1.37714e+07,3.47021e+27,5.51282e+24,5.78212e+10,0.0336012,3.05252e+33,0.03468,0.00152173,4.52645e-05,4.22302e-48,1.27624e+15,1.38786e+16,9.06992e+12,1.51639e+16, 7.22651e+17,1.00276e+09
2.28616e+07,73313.7,1.377e+07,3.70586e+27,5.8818e+24,5.90932e+10,0.0335884,3.04805e+33,0.03468,0.00151948,4.51231e-05,4.19486e-48,1.27397e+15,1.38624e+16,9.06616e+12,1.51455e+16, 7.53373e+17,1.00145e+09
2.33616e+07,73234,1.37685e+07,3.95179e+27,6.26628e+24,6.03638e+10,0.0335752,3.0435e+33,0.03468,0.00151718,4.49793e-05,4.16631e-48,1.27167e+15,1.38459e+16,9.06233e+12,1.51266e+16, 7.84608e+17,1.00012e+09
2.38616e+07,73152.7,1.3767e+07,4.20819e+27,6.6665e+24,6.16329e+10,0.0335618,3.03886e+33,0.03468,0.00151485,4.48331e-05,4.1374e-48,1.26931e+15,1.3829e+16,9.05842e+12,1.51074e+16, 8.16344e+17,9.98759e+08
2.43616e+07,73069.8,1.37655e+07,4.47526e+27,7.08271e+24,6.29007e+10,0.0335481,3.03414e+33,0.03468,0.00151247,4.46845e-05,4.10813e-48,1.26692e+15,1.38118e+16,9.05444e+12,1.50878e+16, 8.48571e+17,9.97374e+08
2.48616e+07,72985.3,1.3764e+07,4.75321e+27,7.51516e+24,6.4167e+10,0.033534,3.02933e+33,0.03468,0.00151004,4.45336e-05,4.07852e-48,1.26448e+15,1.37943e+16,9.05039e+12,1.50679e+16, 8.81279e+17,9.95964e+08
2.53616e+07,72899.3,1.37624e+07,5.04222e+27,7.96408e+24,6.54318e+10,0.0335197,3.02444e+33,0.03468,0.00150757,4.43805e-05,4.04858e-48,1.26199e+15,1.37765e+16,9.04627e+12,1.50475e+16, 9.14458e+17,9.94529e+08
2.58616e+07,72811.7,1.37608e+07,5.3425e+27,8.42971e+24,6.66952e+10,0.0335051,3.01948e+33,0.03468,0.00150506,4.42251e-05,4.01833e-48,1.25947e+15,1.37583e+16,9.04209e+12,1.50268e+16, 9.48097e+17,9.93068e+08
2.63616e+07,72722.5,1.37592e+07,5.65425e+27,8.91226e+24,6.79569e+10,0.0334901,3.01443e+33,0.03468,0.00150251,4.40676e-05,3.98777e-48,1.2569e+15,1.37399e+16,9.03783e+12,1.50058e+16, 9.82185e+17,9.91584e+08
2.68616e+07,72631.8,1.37576e+07,5.97764e+27,9.41197e+24,6.92172e+10,0.0334749,3.00931e+33,0.03468,0.00149992,4.39079e-05,3.95693e-48,1.25428e+15,1.37211e+16,9.0335e+12,1.49844e+16, 1.01671e+18,9.90074e+08
2.73616e+07,72539.5,1.37559e+07,6.31288e+27,9.92906e+24,7.04758e+10,0.0334594,3.0041e+33,0.03468,0.00149729,4.37461e-05,3.92582e-48,1.25163e+15,1.3702e+16,9.02911e+12,1.49627e+16, 1.05167e+18,9.88541e+08
2.78616e+07,72445.7,1.37542e+07,6.66015e+27,1.04637e+25,7.17329e+10,0.0334435,2.99883e+33,0.03468,0.00149461,4.35822e-05,3.89444e-48,1.24893e+15,1.36826e+16,9.02464e+12,1.49405e+16, 1.08704e+18,9.86983e+08
2.83616e+07,72350.4,1.37525e+07,7.01964e+27,1.10162e+25,7.29882e+10,0.0334274,2.99347e+33,0.03468,0.0014919,4.34164e-05,3.86282e-48,1.2462e+15,1.36629e+16,9.02012e+12,1.49181e+16, 1.12281e+18,9.85401e+08
2.88616e+07,72253.6,1.37507e+07,7.39154e+27,1.15866e+25,7.4242e+10,0.033411,2.98804e+33,0.03468,0.00148914,4.32485e-05,3.83096e-48,1.24342e+15,1.36428e+16,9.01552e+12,1.48953e+16, 1.15898e+18,9.83795e+08
2.93616e+07,72155.2,1.37489e+07,7.77603e+27,1.21752e+25,7.5494e+10,0.0333942,2.98254e+33,0.03468,0.00148635,4.30788e-05,3.79888e-48,1.2406e+15,1.36225e+16,9.01087e+12,1.48721e+16, 1.19554e+18,9.82166e+08
2.98616e+07,72055.4,1.37471e+07,8.1733e+27,1.27822e+25,7.67443e+10,0.0333772,2.97696e+33,0.03468,0.00148351,4.29071e-05,3.7666e-48,1.23774e+15,1.36019e+16,9.00614e+12,1.48486e+16, 1.23247e+18,9.80512e+08
3.03616e+07,71954.1,1.37453e+07,8.58352e+27,1.34078e+25,7.79929e+10,0.0333599,2.97131e+33,0.03468,0.00148064,4.27336e-05,3.73412e-48,1.23484e+15,1.3581e+16,9.00136e+12,1.48248e+16, 1.26975e+18,9.78836e+08
3.08616e+07,71851.3,1.37435e+07,9.00688e+27,1.40521e+25,7.92397e+10,0.0333422,2.96559e+33,0.03468,0.00147773,4.25584e-05,3.70146e-48,1.2319e+15,1.35597e+16,8.99651e+12,1.48006e+16, 1.30739e+18,9.77136e+08
3.13616e+07,71747.1,1.37416e+07,9.44355e+27,1.47152e+25,8.04847e+10,0.0333242,2.9598e+33,0.03468,0.00147478,4.23814e-05,3.66863e-48,1.22892e+15,1.35382e+16,8.9916e+12,1.47761e+16, 1.34537e+18,9.75414e+08
3.18616e+07,71641.4,1.37397e+07,9.89371e+27,1.53975e+25,8.17279e+10,0.033306,2.95394e+33,0.03468,0.00147179,4.22027e-05,3.63564e-48,1.22591e+15,1.35164e+16,8.98663e+12,1.47513e+16, 1.38367e+18,9.73668e+08
3.23616e+07,71534.2,1.37378e+07,1.03575e+28,1.6099e+25,8.29692e+10,0.0332874,2.94801e+33,0.03468,0.00146877,4.20223e-05,3.60251e-48,1.22285e+15,1.34943e+16,8.9816e+12,1.47261e+16, 1.42228e+18,9.719e+08
3.28616e+07,71425.6,1.37358e+07,1.08352e+28,1.68198e+25,8.42087e+10,0.0332685,2.94202e+33,0.03468,0.00146571,4.18403e-05,3.56925e-48,1.21976e+15,1.34719e+16,8.97651e+12,1.47006e+16, 1.4612e+18,9.7011e+08
3.33616e+07,71315.6,1.37338e+07,1.13269e+28,1.75602e+25,8.54463e+10,0.0332494,2.93596e+33,0.03468,0.00146261,4.16568e-05,3.53588e-48,1.21663e+15,1.34492e+16,8.97136e+12,1.46748e+16, 1.50042e+18,9.68297e+08
