X = 0.734
Y = 0.25
Z = 0.016
mu = 0.601142
Radius,Density,Temp,Mass,Lum,OptD,Kff,KH,Kes,PP,CNO,3a,Deg,Gas,Rad,TotPres
0,0,0,0,0,0,-nan,0,0.03468,0.000109278,1.84817e-11,2.89779e-62,0,0,0,0
1,110000,6.44304e+06,460767,50.3516,70044.7,0.63677,4.0137e+30,0.03468,0.000109278,1.84817e-11,2.89779e-62,2.50518e+15,9.73205e+15,4.34564e+11,1.22377e+16
30001,110000,6.44304e+06,1.2442e+19,1.35963e+15,2.10141e+09,0.63677,4.0137e+30,0.03468,0.000109278,1.84817e-11,2.89779e-62,2.50518e+15,9.73204e+15,4.34564e+11,1.22377e+16
70001,110000,6.44304e+06,1.5805e+20,1.72713e+16,4.9032e+09,0.63677,4.01369e+30,0.03468,0.000109278,1.84817e-11,2.89779e-62,2.50518e+15,9.73204e+15,4.34564e+11,1.22377e+16
150001,110000,6.44303e+06,1.55512e+21,1.69939e+17,1.05068e+10,0.636771,4.01365e+30,0.03468,0.000109278,1.84817e-11,2.89779e-62,2.50517e+15,9.73201e+15,4.34562e+11,1.22376e+16
250001,109999,6.44302e+06,7.19954e+21,7.8674e+17,1.75112e+10,0.636774,4.01356e+30,0.03468,0.000109278,1.84817e-11,2.89779e-62,2.50515e+15,9.73194e+15,4.34558e+11,1.22375e+16
350001,109998,6.443e+06,1.97554e+22,2.15877e+18,2.45157e+10,0.636778,4.01342e+30,0.03468,0.000109278,1.84817e-11,2.89779e-62,2.50512e+15,9.73184e+15,4.34552e+11,1.22374e+16
450001,109997,6.44297e+06,4.19871e+22,4.58807e+18,3.15202e+10,0.636784,4.01325e+30,0.03468,0.000109278,1.84817e-11,2.89779e-62,2.50508e+15,9.7317e+15,4.34545e+11,1.22372e+16
550001,109996,6.44293e+06,7.66589e+22,8.3766e+18,3.85246e+10,0.636791,4.01302e+30,0.03468,0.000109278,1.84817e-11,2.89779e-62,2.50503e+15,9.73153e+15,4.34535e+11,1.2237e+16
650001,109994,6.44289e+06,1.26535e+23,1.38263e+19,4.55291e+10,0.636799,4.01275e+30,0.03468,0.000109278,1.84817e-11,2.89779e-62,2.50497e+15,9.73133e+15,4.34524e+11,1.22367e+16
750001,109993,6.44284e+06,1.94379e+23,2.12389e+19,5.25335e+10,0.636809,4.01244e+30,0.03468,0.000109278,1.84817e-11,2.89779e-62,2.5049e+15,9.73109e+15,4.3451e+11,1.22364e+16
850001,109991,6.44278e+06,2.82955e+23,3.09162e+19,5.95379e+10,0.636821,4.01208e+30,0.03468,0.000109278,1.84817e-11,2.89779e-62,2.50482e+15,9.73082e+15,4.34495e+11,1.22361e+16
950001,109988,6.44272e+06,3.95026e+23,4.31597e+19,6.65424e+10,0.636833,4.01168e+30,0.03468,0.000109278,1.84817e-11,2.89778e-62,2.50474e+15,9.73052e+15,4.34477e+11,1.22357e+16
1.05e+06,109986,6.44265e+06,5.33355e+23,5.82708e+19,7.35468e+10,0.636847,4.01123e+30,0.03468,0.000109278,1.84817e-11,2.89778e-62,2.50464e+15,9.73018e+15,4.34458e+11,1.22352e+16
1.15e+06,109983,6.44257e+06,7.00705e+23,7.65509e+19,8.05512e+10,0.636863,4.01074e+30,0.03468,0.000109278,1.84817e-11,2.89778e-62,2.50453e+15,9.72981e+15,4.34437e+11,1.22348e+16
1.25e+06,109980,6.44249e+06,8.99838e+23,9.83011e+19,8.75556e+10,0.63688,4.01021e+30,0.03468,0.000109278,1.84817e-11,2.89777e-62,2.50441e+15,9.7294e+15,4.34414e+11,1.22342e+16
1.35e+06,109976,6.44239e+06,1.13352e+24,1.23822e+20,9.45599e+10,0.636898,4.00963e+30,0.03468,0.000109278,1.84816e-11,2.89776e-62,2.50428e+15,9.72896e+15,4.34389e+11,1.22337e+16
1.45e+06,109973,6.44229e+06,1.4045e+24,1.53415e+20,1.01564e+11,0.636918,4.009e+30,0.03468,0.000109278,1.84816e-11,2.89776e-62,2.50414e+15,9.72849e+15,4.34362e+11,1.22331e+16
1.55e+06,109969,6.44219e+06,1.71555e+24,1.8738e+20,1.08569e+11,0.636939,4.00833e+30,0.03468,0.000109278,1.84816e-11,2.89775e-62,2.50399e+15,9.72798e+15,4.34333e+11,1.22324e+16
1.65e+06,109965,6.44207e+06,2.06943e+24,2.26017e+20,1.15573e+11,0.636962,4.00762e+30,0.03468,0.000109278,1.84816e-11,2.89774e-62,2.50384e+15,9.72744e+15,4.34303e+11,1.22317e+16
1.75e+06,109960,6.44195e+06,2.46889e+24,2.69627e+20,1.22577e+11,0.636986,4.00686e+30,0.03468,0.000109278,1.84815e-11,2.89772e-62,2.50367e+15,9.72687e+15,4.3427e+11,1.2231e+16
1.85e+06,109955,6.44182e+06,2.9167e+24,3.18509e+20,1.29582e+11,0.637011,4.00606e+30,0.03468,0.000109277,1.84814e-11,2.89767e-62,2.50349e+15,9.72626e+15,4.34235e+11,1.22302e+16
1.95e+06,109951,6.44169e+06,3.41561e+24,3.72962e+20,1.36586e+11,0.637038,4.00521e+30,0.03468,0.000109277,1.84813e-11,2.89764e-62,2.5033e+15,9.72562e+15,4.34199e+11,1.22294e+16
2.05e+06,109945,6.44155e+06,3.96839e+24,4.33286e+20,1.4359e+11,0.637066,4.00432e+30,0.03468,0.000109277,1.84813e-11,2.89764e-62,2.50311e+15,9.72495e+15,4.34161e+11,1.22285e+16
2.15e+06,109940,6.4414e+06,4.57778e+24,4.9978e+20,1.50594e+11,0.637096,4.00338e+30,0.03468,0.000109277,1.84812e-11,2.89762e-62,2.5029e+15,9.72424e+15,4.3412e+11,1.22276e+16
2.25e+06,109934,6.44124e+06,5.24655e+24,5.72741e+20,1.57599e+11,0.637127,4.0024e+30,0.03468,0.000109277,1.84811e-11,2.89757e-62,2.50268e+15,9.7235e+15,4.34078e+11,1.22266e+16
2.35e+06,109928,6.44108e+06,5.97744e+24,6.52469e+20,1.64603e+11,0.637159,4.00138e+30,0.03468,0.000109277,1.8481e-11,2.89754e-62,2.50246e+15,9.72272e+15,4.34034e+11,1.22256e+16
2.45e+06,109922,6.4409e+06,6.77322e+24,7.3926e+20,1.71607e+11,0.637193,4.00031e+30,0.03468,0.000109276,1.84807e-11,2.89744e-62,2.50222e+15,9.72191e+15,4.33988e+11,1.22246e+16
2.55e+06,109915,6.44073e+06,7.63664e+24,8.33412e+20,1.78611e+11,0.637228,3.9992e+30,0.03468,0.000109276,1.84804e-11,2.89733e-62,2.50198e+15,9.72107e+15,4.3394e+11,1.22235e+16
2.65e+06,109909,6.44054e+06,8.57044e+24,9.35223e+20,1.85615e+11,0.637265,3.99804e+30,0.03468,0.000109276,1.84805e-11,2.89736e-62,2.50172e+15,9.7202e+15,4.3389e+11,1.22223e+16
2.75e+06,109902,6.44035e+06,9.57739e+24,1.04499e+21,1.92619e+11,0.637303,3.99684e+30,0.03468,0.000109276,1.84803e-11,2.89731e-62,2.50145e+15,9.71929e+15,4.33838e+11,1.22212e+16
2.85e+06,109894,6.44015e+06,1.06602e+25,1.163e+21,1.99623e+11,0.637343,3.9956e+30,0.03468,0.000109275,1.84801e-11,2.89723e-62,2.50118e+15,9.71834e+15,4.33784e+11,1.222e+16
2.95e+06,109887,6.43994e+06,1.18217e+25,1.28957e+21,2.06627e+11,0.637384,3.99431e+30,0.03468,0.000109275,1.848e-11,2.89719e-62,2.50089e+15,9.71737e+15,4.33729e+11,1.22187e+16
3.05e+06,109879,6.43973e+06,1.30646e+25,1.42497e+21,2.13631e+11,0.637426,3.99297e+30,0.03468,0.000109274,1.84796e-11,2.89704e-62,2.5006e+15,9.71636e+15,4.33671e+11,1.22174e+16
3.15e+06,109871,6.43951e+06,1.43916e+25,1.56951e+21,2.20635e+11,0.63747,3.9916e+30,0.03468,0.000109273,1.8479e-11,2.89686e-62,2.50029e+15,9.71531e+15,4.33612e+11,1.2216e+16
3.25e+06,109863,6.43928e+06,1.58054e+25,1.72348e+21,2.27639e+11,0.637515,3.99017e+30,0.03468,0.000109274,1.84792e-11,2.89691e-62,2.49998e+15,9.71424e+15,4.33551e+11,1.22146e+16
3.35e+06,109854,6.43905e+06,1.7309e+25,1.88717e+21,2.34643e+11,0.637562,3.98871e+30,0.03468,0.000109273,1.8479e-11,2.89684e-62,2.49965e+15,9.71313e+15,4.33487e+11,1.22132e+16
3.45e+06,109845,6.4388e+06,1.89048e+25,2.06088e+21,2.41647e+11,0.63761,3.9872e+30,0.03468,0.000109273,1.84787e-11,2.89674e-62,2.49932e+15,9.71198e+15,4.33422e+11,1.22117e+16
3.55e+06,109836,6.43856e+06,2.05958e+25,2.24491e+21,2.48651e+11,0.637659,3.98565e+30,0.03468,0.000109273,1.84785e-11,2.89667e-62,2.49898e+15,9.7108e+15,4.33355e+11,1.22102e+16
3.65e+06,109827,6.4383e+06,2.23847e+25,2.43953e+21,2.55655e+11,0.63771,3.98405e+30,0.03468,0.000109272,1.84779e-11,2.89649e-62,2.49862e+15,9.70959e+15,4.33286e+11,1.22086e+16
3.75e+06,109817,6.43804e+06,2.42741e+25,2.64505e+21,2.62659e+11,0.637763,3.98241e+30,0.03468,0.00010927,1.84772e-11,2.89623e-62,2.49826e+15,9.70835e+15,4.33215e+11,1.2207e+16
3.85e+06,109808,6.43777e+06,2.62668e+25,2.86175e+21,2.69662e+11,0.637816,3.98073e+30,0.03468,0.000109271,1.84774e-11,2.89631e-62,2.49789e+15,9.70707e+15,4.33142e+11,1.22054e+16
3.95e+06,109798,6.43749e+06,2.83657e+25,3.08992e+21,2.76666e+11,0.637872,3.979e+30,0.03468,0.00010927,1.84772e-11,2.89622e-62,2.4975e+15,9.70576e+15,4.33068e+11,1.22037e+16
4.05e+06,109787,6.4372e+06,3.05733e+25,3.32986e+21,2.8367e+11,0.637928,3.97723e+30,0.03468,0.00010927,1.84768e-11,2.89609e-62,2.49711e+15,9.70441e+15,4.32991e+11,1.2202e+16
4.15e+06,109777,6.43691e+06,3.28925e+25,3.58185e+21,2.90673e+11,0.637986,3.97542e+30,0.03468,0.000109269,1.84765e-11,2.89601e-62,2.49671e+15,9.70304e+15,4.32913e+11,1.22002e+16
4.25e+06,109766,6.43661e+06,3.53259e+25,3.84619e+21,2.97677e+11,0.638046,3.97356e+30,0.03468,0.000109268,1.84759e-11,2.89578e-62,2.4963e+15,9.70162e+15,4.32832e+11,1.21984e+16
4.35e+06,109755,6.43631e+06,3.78763e+25,4.12315e+21,3.04681e+11,0.638106,3.97166e+30,0.03468,0.000109267,1.84749e-11,2.89546e-62,2.49587e+15,9.70018e+15,4.3275e+11,1.21965e+16
4.45e+06,109743,6.43599e+06,4.05464e+25,4.41303e+21,3.11684e+11,0.638169,3.96971e+30,0.03468,0.000109267,1.84752e-11,2.89556e-62,2.49544e+15,9.6987e+15,4.32666e+11,1.21946e+16
4.55e+06,109732,6.43567e+06,4.3339e+25,4.71611e+21,3.18688e+11,0.638232,3.96773e+30,0.03468,0.000109267,1.84749e-11,2.89545e-62,2.495e+15,9.69719e+15,4.3258e+11,1.21926e+16
4.65e+06,109720,6.43535e+06,4.62568e+25,5.03268e+21,3.25691e+11,0.638297,3.9657e+30,0.03468,0.000109266,1.84744e-11,2.89528e-62,2.49455e+15,9.69565e+15,4.32492e+11,1.21906e+16
4.75e+06,109707,6.43501e+06,4.93025e+25,5.36302e+21,3.32694e+11,0.638364,3.96362e+30,0.03468,0.000109265,1.84742e-11,2.89519e-62,2.49409e+15,9.69407e+15,4.32402e+11,1.21886e+16
4.85e+06,109695,6.43467e+06,5.24788e+25,5.70741e+21,3.39698e+11,0.638432,3.96151e+30,0.03468,0.000109264,1.84734e-11,2.89491e-62,2.49362e+15,9.69246e+15,4.3231e+11,1.21865e+16
4.95e+06,109682,6.43432e+06,5.57884e+25,6.06615e+21,3.46701e+11,0.638501,3.95935e+30,0.03468,0.000109262,1.84722e-11,2.89452e-62,2.49314e+15,9.69081e+15,4.32217e+11,1.21844e+16
5.05e+06,109669,6.43397e+06,5.92341e+25,6.43951e+21,3.53704e+11,0.638572,3.95715e+30,0.03468,0.000109263,1.84726e-11,2.89465e-62,2.49265e+15,9.68913e+15,4.32121e+11,1.21822e+16
5.15e+06,109656,6.4336e+06,6.28186e+25,6.82778e+21,3.60707e+11,0.638644,3.9549e+30,0.03468,0.000109262,1.84722e-11,2.89452e-62,2.49215e+15,9.68742e+15,4.32024e+11,1.218e+16
5.25e+06,109643,6.43323e+06,6.65445e+25,7.23122e+21,3.6771e+11,0.638718,3.95261e+30,0.03468,0.000109261,1.84716e-11,2.89433e-62,2.49164e+15,9.68568e+15,4.31924e+11,1.21777e+16
5.35e+06,109629,6.43286e+06,7.04147e+25,7.65014e+21,3.74714e+11,0.638793,3.95028e+30,0.03468,0.000109261,1.84713e-11,2.89422e-62,2.49112e+15,9.6839e+15,4.31823e+11,1.21755e+16
5.45e+06,109615,6.43247e+06,7.44317e+25,8.0848e+21,3.81717e+11,0.63887,3.94791e+30,0.03468,0.000109259,1.84704e-11,2.8939e-62,2.49059e+15,9.68209e+15,4.3172e+11,1.21731e+16
5.55e+06,109601,6.43208e+06,7.85984e+25,8.53548e+21,3.8872e+11,0.638947,3.9455e+30,0.03468,0.000109257,1.84691e-11,2.89344e-62,2.49005e+15,9.68025e+15,4.31615e+11,1.21707e+16
5.65e+06,109586,6.43168e+06,8.29174e+25,9.00246e+21,3.95722e+11,0.639027,3.94304e+30,0.03468,0.000109258,1.84695e-11,2.89358e-62,2.48951e+15,9.67837e+15,4.31508e+11,1.21683e+16
5.75e+06,109572,6.43128e+06,8.73915e+25,9.48602e+21,4.02725e+11,0.639108,3.94054e+30,0.03468,0.000109257,1.84691e-11,2.89344e-62,2.48895e+15,9.67646e+15,4.314e+11,1.21658e+16
5.85e+06,109557,6.43087e+06,9.20232e+25,9.98643e+21,4.09728e+11,0.63919,3.938e+30,0.03468,0.000109256,1.84684e-11,2.89322e-62,2.48838e+15,9.67452e+15,4.31289e+11,1.21633e+16
5.95e+06,109542,6.43045e+06,9.68154e+25,1.0504e+22,4.16731e+11,0.639273,3.93541e+30,0.03468,0.000109255,1.8468e-11,2.89309e-62,2.4878e+15,9.67254e+15,4.31177e+11,1.21608e+16
6.05e+06,109526,6.43002e+06,1.01771e+26,1.10389e+22,4.23734e+11,0.639359,3.93279e+30,0.03468,0.000109254,1.8467e-11,2.89272e-62,2.48722e+15,9.67053e+15,4.31062e+11,1.21582e+16
6.15e+06,109510,6.42959e+06,1.06892e+26,1.15915e+22,4.30736e+11,0.639445,3.93012e+30,0.03468,0.000109251,1.84655e-11,2.8922e-62,2.48662e+15,9.66849e+15,4.30946e+11,1.21555e+16
6.25e+06,109494,6.42915e+06,1.12182e+26,1.21621e+22,4.37739e+11,0.639533,3.92741e+30,0.03468,0.000109252,1.84659e-11,2.89237e-62,2.48602e+15,9.66641e+15,4.30828e+11,1.21529e+16
6.35e+06,109478,6.4287e+06,1.17642e+26,1.27508e+22,4.44741e+11,0.639622,3.92466e+30,0.03468,0.000109251,1.84655e-11,2.89221e-62,2.4854e+15,9.6643e+15,4.30708e+11,1.21501e+16
6.45e+06,109461,6.42825e+06,1.23277e+26,1.33581e+22,4.51744e+11,0.639713,3.92187e+30,0.03468,0.00010925,1.84647e-11,2.89195e-62,2.48478e+15,9.66216e+15,4.30586e+11,1.21474e+16
6.55e+06,109445,6.42778e+06,1.29088e+26,1.39841e+22,4.58746e+11,0.639805,3.91903e+30,0.03468,0.000109249,1.84643e-11,2.89181e-62,2.48414e+15,9.65999e+15,4.30462e+11,1.21446e+16
6.65e+06,109428,6.42732e+06,1.35079e+26,1.46292e+22,4.65749e+11,0.639899,3.91616e+30,0.03468,0.000109247,1.84631e-11,2.8914e-62,2.4835e+15,9.65778e+15,4.30337e+11,1.21417e+16
6.75e+06,109410,6.42684e+06,1.41252e+26,1.52935e+22,4.72751e+11,0.639994,3.91324e+30,0.03468,0.000109244,1.84614e-11,2.89081e-62,2.48284e+15,9.65554e+15,4.30209e+11,1.21388e+16
6.85e+06,109393,6.42636e+06,1.47609e+26,1.59774e+22,4.79753e+11,0.640091,3.91028e+30,0.03468,0.000109245,1.84619e-11,2.891e-62,2.48218e+15,9.65327e+15,4.3008e+11,1.21359e+16
6.95e+06,109375,6.42587e+06,1.54153e+26,1.66811e+22,4.86755e+11,0.640188,3.90728e+30,0.03468,0.000109244,1.84614e-11,2.89082e-62,2.48151e+15,9.65096e+15,4.29949e+11,1.21329e+16
7.05e+06,109357,6.42537e+06,1.60887e+26,1.74049e+22,4.93757e+11,0.640288,3.90424e+30,0.03468,0.000109243,1.84606e-11,2.89053e-62,2.48083e+15,9.64863e+15,4.29816e+11,1.21299e+16
7.15e+06,109339,6.42487e+06,1.67814e+26,1.8149e+22,5.00759e+11,0.640389,3.90116e+30,0.03468,0.000109242,1.84601e-11,2.89037e-62,2.48013e+15,9.64626e+15,4.29681e+11,1.21268e+16
7.25e+06,109320,6.42435e+06,1.74937e+26,1.89138e+22,5.07761e+11,0.640491,3.89803e+30,0.03468,0.00010924,1.84588e-11,2.88992e-62,2.47943e+15,9.64385e+15,4.29544e+11,1.21237e+16
7.35e+06,109301,6.42384e+06,1.82257e+26,1.96994e+22,5.14763e+11,0.640595,3.89487e+30,0.03468,0.000109237,1.84569e-11,2.88927e-62,2.47872e+15,9.64141e+15,4.29406e+11,1.21206e+16
7.45e+06,109282,6.42331e+06,1.89778e+26,2.05062e+22,5.21765e+11,0.6407,3.89167e+30,0.03468,0.000109238,1.84575e-11,2.88947e-62,2.478e+15,9.63895e+15,4.29266e+11,1.21174e+16
7.55e+06,109263,6.42278e+06,1.97502e+26,2.13343e+22,5.28767e+11,0.640806,3.88842e+30,0.03468,0.000109237,1.84569e-11,2.88927e-62,2.47727e+15,9.63644e+15,4.29123e+11,1.21141e+16
7.65e+06,109243,6.42224e+06,2.05432e+26,2.21841e+22,5.35768e+11,0.640914,3.88514e+30,0.03468,0.000109236,1.8456e-11,2.88896e-62,2.47653e+15,9.63391e+15,4.28979e+11,1.21109e+16
7.75e+06,109224,6.42169e+06,2.13571e+26,2.30558e+22,5.4277e+11,0.641024,3.88181e+30,0.03468,0.000109235,1.84555e-11,2.88878e-62,2.47578e+15,9.63134e+15,4.28833e+11,1.21076e+16
7.85e+06,109204,6.42114e+06,2.21921e+26,2.39496e+22,5.49771e+11,0.641135,3.87845e+30,0.03468,0.000109232,1.8454e-11,2.88828e-62,2.47503e+15,9.62874e+15,4.28685e+11,1.21042e+16
7.95e+06,109183,6.42058e+06,2.30485e+26,2.48659e+22,5.56773e+11,0.641247,3.87504e+30,0.03468,0.000109229,1.84519e-11,2.88757e-62,2.47426e+15,9.62611e+15,4.28536e+11,1.21008e+16
8.05e+06,109163,6.42001e+06,2.39265e+26,2.58048e+22,5.63774e+11,0.641361,3.87159e+30,0.03468,0.00010923,1.84526e-11,2.8878e-62,2.47348e+15,9.62344e+15,4.28384e+11,1.20974e+16
8.15e+06,109142,6.41944e+06,2.48265e+26,2.67666e+22,5.70775e+11,0.641476,3.86811e+30,0.03468,0.000109229,1.8452e-11,2.88758e-62,2.47269e+15,9.62075e+15,4.28231e+11,1.20939e+16
8.25e+06,109121,6.41886e+06,2.57486e+26,2.77516e+22,5.77776e+11,0.641592,3.86458e+30,0.03468,0.000109227,1.8451e-11,2.88723e-62,2.4719e+15,9.61802e+15,4.28076e+11,1.20903e+16
8.35e+06,109099,6.41827e+06,2.66932e+26,2.876e+22,5.84778e+11,0.641711,3.86102e+30,0.03468,0.000109226,1.84504e-11,2.88704e-62,2.47109e+15,9.61525e+15,4.27919e+11,1.20868e+16
8.45e+06,109078,6.41767e+06,2.76604e+26,2.9792e+22,5.91779e+11,0.64183,3.85741e+30,0.03468,0.000109224,1.84488e-11,2.8865e-62,2.47028e+15,9.61246e+15,4.2776e+11,1.20832e+16
8.55e+06,109056,6.41707e+06,2.86507e+26,3.0848e+22,5.98779e+11,0.641951,3.85377e+30,0.03468,0.00010922,1.84465e-11,2.88572e-62,2.46945e+15,9.60963e+15,4.27599e+11,1.20795e+16
8.65e+06,109034,6.41646e+06,2.96642e+26,3.19281e+22,6.0578e+11,0.642073,3.85008e+30,0.03468,0.000109221,1.84473e-11,2.88597e-62,2.46862e+15,9.60677e+15,4.27437e+11,1.20758e+16
8.75e+06,109012,6.41584e+06,3.07012e+26,3.30326e+22,6.12781e+11,0.642197,3.84636e+30,0.03468,0.00010922,1.84466e-11,2.88573e-62,2.46778e+15,9.60388e+15,4.27273e+11,1.20721e+16
8.85e+06,108989,6.41522e+06,3.17619e+26,3.41617e+22,6.19782e+11,0.642323,3.8426e+30,0.03468,0.000109218,1.84455e-11,2.88535e-62,2.46692e+15,9.60096e+15,4.27107e+11,1.20683e+16
8.95e+06,108966,6.41459e+06,3.28467e+26,3.53157e+22,6.26782e+11,0.642449,3.8388e+30,0.03468,0.000109217,1.84449e-11,2.88515e-62,2.46606e+15,9.598e+15,4.26939e+11,1.20645e+16
9.05e+06,108943,6.41395e+06,3.39557e+26,3.64949e+22,6.33783e+11,0.642577,3.83496e+30,0.03468,0.000109214,1.84432e-11,2.88456e-62,2.46519e+15,9.59501e+15,4.26769e+11,1.20606e+16
9.15e+06,108920,6.41331e+06,3.50893e+26,3.76993e+22,6.40783e+11,0.642707,3.83108e+30,0.03468,0.00010921,1.84407e-11,2.88372e-62,2.46431e+15,9.59199e+15,4.26597e+11,1.20567e+16
9.25e+06,108896,6.41266e+06,3.62477e+26,3.89294e+22,6.47784e+11,0.642838,3.82716e+30,0.03468,0.000109211,1.84415e-11,2.88398e-62,2.46342e+15,9.58894e+15,4.26424e+11,1.20528e+16
9.35e+06,108872,6.412e+06,3.74311e+26,4.01853e+22,6.54784e+11,0.642971,3.82321e+30,0.03468,0.00010921,1.84407e-11,2.88373e-62,2.46252e+15,9.58585e+15,4.26249e+11,1.20488e+16
9.45e+06,108848,6.41133e+06,3.86399e+26,4.14672e+22,6.61784e+11,0.643105,3.81922e+30,0.03468,0.000109208,1.84396e-11,2.88332e-62,2.46161e+15,9.58274e+15,4.26072e+11,1.20448e+16
9.55e+06,108824,6.41066e+06,3.98742e+26,4.27755e+22,6.68784e+11,0.64324,3.81518e+30,0.03468,0.000109207,1.84389e-11,2.8831e-62,2.46069e+15,9.57959e+15,4.25893e+11,1.20407e+16
9.65e+06,108799,6.40998e+06,4.11344e+26,4.41102e+22,6.75784e+11,0.643377,3.81111e+30,0.03468,0.000109204,1.84371e-11,2.88247e-62,2.45977e+15,9.57641e+15,4.25713e+11,1.20366e+16
9.75e+06,108774,6.40929e+06,4.24207e+26,4.54717e+22,6.82784e+11,0.643515,3.80701e+30,0.03468,0.0001092,1.84344e-11,2.88156e-62,2.45883e+15,9.57319e+15,4.2553e+11,1.20324e+16
9.85e+06,108749,6.4086e+06,4.37333e+26,4.68602e+22,6.89784e+11,0.643655,3.80286e+30,0.03468,0.000109201,1.84353e-11,2.88185e-62,2.45788e+15,9.56995e+15,4.25346e+11,1.20283e+16
9.95e+06,108724,6.4079e+06,4.50725e+26,4.82759e+22,6.96784e+11,0.643796,3.79868e+30,0.03468,0.0001092,1.84344e-11,2.88157e-62,2.45693e+15,9.56667e+15,4.2516e+11,1.2024e+16
1.005e+07,108698,6.40719e+06,4.64387e+26,4.97191e+22,7.03783e+11,0.643939,3.79446e+30,0.03468,0.000109198,1.84332e-11,2.88114e-62,2.45597e+15,9.56336e+15,4.24972e+11,1.20198e+16
1.015e+07,108672,6.40648e+06,4.78319e+26,5.11898e+22,7.10783e+11,0.644083,3.7902e+30,0.03468,0.000109197,1.84325e-11,2.8809e-62,2.45499e+15,9.56002e+15,4.24783e+11,1.20154e+16
1.025e+07,108646,6.40575e+06,4.92525e+26,5.26885e+22,7.17782e+11,0.644229,3.78591e+30,0.03468,0.000109194,1.84305e-11,2.88022e-62,2.45401e+15,9.55665e+15,4.24591e+11,1.20111e+16
1.035e+07,108620,6.40503e+06,5.07008e+26,5.42153e+22,7.24781e+11,0.644376,3.78157e+30,0.03468,0.000109188,1.84277e-11,2.87925e-62,2.45302e+15,9.55324e+15,4.24398e+11,1.20067e+16
1.045e+07,108593,6.40429e+06,5.2177e+26,5.57704e+22,7.31781e+11,0.644525,3.7772e+30,0.03468,0.00010919,1.84286e-11,2.87956e-62,2.45202e+15,9.54981e+15,4.24203e+11,1.20022e+16
1.055e+07,108566,6.40355e+06,5.36813e+26,5.7354e+22,7.3878e+11,0.644675,3.7728e+30,0.03468,0.000109189,1.84277e-11,2.87927e-62,2.45101e+15,9.54634e+15,4.24007e+11,1.19978e+16
1.065e+07,108539,6.4028e+06,5.52141e+26,5.89664e+22,7.45779e+11,0.644826,3.76836e+30,0.03468,0.000109187,1.84264e-11,2.8788e-62,2.44999e+15,9.54284e+15,4.23808e+11,1.19932e+16
1.075e+07,108512,6.40204e+06,5.67755e+26,6.06077e+22,7.52778e+11,0.644979,3.76388e+30,0.03468,0.000109185,1.84256e-11,2.87855e-62,2.44896e+15,9.53931e+15,4.23608e+11,1.19887e+16
1.085e+07,108484,6.40128e+06,5.83658e+26,6.22783e+22,7.59776e+11,0.645133,3.75936e+30,0.03468,0.000109182,1.84235e-11,2.87783e-62,2.44792e+15,9.53574e+15,4.23406e+11,1.19841e+16
1.095e+07,108457,6.40051e+06,5.99853e+26,6.39782e+22,7.66775e+11,0.645289,3.75481e+30,0.03468,0.000109177,1.84205e-11,2.87679e-62,2.44687e+15,9.53215e+15,4.23202e+11,1.19794e+16
1.105e+07,108428,6.39973e+06,6.16342e+26,6.57077e+22,7.73774e+11,0.645446,3.75022e+30,0.03468,0.000109178,1.84214e-11,2.87712e-62,2.44582e+15,9.52852e+15,4.22997e+11,1.19748e+16
