X = 0.734
Y = 0.25
Z = 0.016
mu = 0.601142
Radius,Density,Temp,Mass,Lum,OptD,Kff,KH,Kes,PP,CNO,3a,Deg,Gas,Rad,TotPres
0,0,0,0,0,0,-nan,0,0.03468,0.000689497,1.76499e-07,1.82839e-53,0,0,0,0
1,110000,1.02115e+07,460767,317.779,13975.7,0.127052,2.53247e+32,0.03468,0.000689497,1.76499e-07,1.82839e-53,2.50518e+15,1.54243e+16,2.74191e+12,1.79322e+16
100026,110000,1.02115e+07,4.61129e+20,3.18028e+17,1.39794e+09,0.127052,2.53246e+32,0.03468,0.000689497,1.76499e-07,1.82839e-53,2.50518e+15,1.54242e+16,2.74191e+12,1.79322e+16
200035,110000,1.02115e+07,3.68808e+21,2.54356e+18,2.79564e+09,0.127053,2.53243e+32,0.03468,0.000689497,1.76499e-07,1.82839e-53,2.50517e+15,1.54242e+16,2.7419e+12,1.79321e+16
300073,109999,1.02115e+07,1.24497e+22,8.58613e+18,4.19374e+09,0.127053,2.53239e+32,0.03468,0.000689497,1.76499e-07,1.82839e-53,2.50515e+15,1.54241e+16,2.74188e+12,1.7932e+16
400336,109999,1.02115e+07,2.95632e+22,2.03885e+19,5.59499e+09,0.127054,2.53232e+32,0.03468,0.000689497,1.76499e-07,1.82839e-53,2.50513e+15,1.5424e+16,2.74185e+12,1.79318e+16
500501,109998,1.02114e+07,5.77683e+22,3.98399e+19,6.99487e+09,0.127055,2.53223e+32,0.03468,0.000689497,1.76499e-07,1.82839e-53,2.5051e+15,1.54238e+16,2.74181e+12,1.79316e+16
600545,109997,1.02114e+07,9.97954e+22,6.88228e+19,8.39306e+09,0.127056,2.53213e+32,0.03468,0.000689497,1.76499e-07,1.82839e-53,2.50506e+15,1.54236e+16,2.74177e+12,1.79314e+16
700949,109995,1.02113e+07,1.58683e+23,1.09432e+20,9.79627e+09,0.127057,2.532e+32,0.03468,0.000689497,1.76499e-07,1.82839e-53,2.50501e+15,1.54233e+16,2.74171e+12,1.79311e+16
801208,109994,1.02113e+07,2.36975e+23,1.63421e+20,1.11975e+10,0.127058,2.53185e+32,0.03468,0.000689497,1.76499e-07,1.82839e-53,2.50496e+15,1.54231e+16,2.74165e+12,1.79308e+16
901557,109993,1.02112e+07,3.37631e+23,2.32829e+20,1.25999e+10,0.12706,2.53169e+32,0.03468,0.000689497,1.76499e-07,1.82839e-53,2.5049e+15,1.54227e+16,2.74158e+12,1.79304e+16
1.00168e+06,109991,1.02111e+07,4.63064e+23,3.19318e+20,1.39991e+10,0.127062,2.5315e+32,0.03468,0.000689497,1.76499e-07,1.82839e-53,2.50483e+15,1.54224e+16,2.7415e+12,1.793e+16
1.10216e+06,109989,1.02111e+07,6.16864e+23,4.25362e+20,1.54035e+10,0.127064,2.5313e+32,0.03468,0.000689497,1.76499e-07,1.82839e-53,2.50476e+15,1.5422e+16,2.74141e+12,1.79295e+16
1.2028e+06,109987,1.0211e+07,8.01743e+23,5.52828e+20,1.681e+10,0.127066,2.53108e+32,0.03468,0.000689497,1.76499e-07,1.82839e-53,2.50468e+15,1.54216e+16,2.74132e+12,1.7929e+16
1.30287e+06,109984,1.02109e+07,1.01894e+24,7.02571e+20,1.82085e+10,0.127068,2.53084e+32,0.03468,0.000689497,1.76499e-07,1.82839e-53,2.50459e+15,1.54211e+16,2.74121e+12,1.79284e+16
1.40391e+06,109982,1.02108e+07,1.27483e+24,8.78976e+20,1.96205e+10,0.127071,2.53057e+32,0.03468,0.000689497,1.76499e-07,1.82839e-53,2.5045e+15,1.54206e+16,2.7411e+12,1.79278e+16
1.50489e+06,109979,1.02107e+07,1.57017e+24,1.08256e+21,2.10318e+10,0.127073,2.53029e+32,0.03468,0.000689497,1.76499e-07,1.82839e-53,2.50439e+15,1.542e+16,2.74098e+12,1.79272e+16
1.60592e+06,109976,1.02105e+07,1.9081e+24,1.31549e+21,2.24438e+10,0.127076,2.52999e+32,0.03468,0.000689497,1.76499e-07,1.82839e-53,2.50429e+15,1.54194e+16,2.74085e+12,1.79265e+16
1.70608e+06,109973,1.02104e+07,2.28779e+24,1.57718e+21,2.38435e+10,0.12708,2.52967e+32,0.03468,0.000689497,1.76499e-07,1.82839e-53,2.50417e+15,1.54188e+16,2.74071e+12,1.79257e+16
1.80708e+06,109970,1.02103e+07,2.71857e+24,1.87406e+21,2.5255e+10,0.127083,2.52932e+32,0.03468,0.000689497,1.76499e-07,1.82839e-53,2.50405e+15,1.54182e+16,2.74056e+12,1.79249e+16
1.90834e+06,109967,1.02101e+07,3.20164e+24,2.20695e+21,2.66702e+10,0.127086,2.52896e+32,0.03468,0.000689497,1.76499e-07,1.82839e-53,2.50392e+15,1.54175e+16,2.74041e+12,1.79241e+16
2.00927e+06,109963,1.021e+07,3.7369e+24,2.57578e+21,2.80808e+10,0.12709,2.52858e+32,0.03468,0.000689497,1.76499e-07,1.82839e-53,2.50378e+15,1.54167e+16,2.74025e+12,1.79232e+16
2.11081e+06,109959,1.02098e+07,4.33243e+24,2.98609e+21,2.94997e+10,0.127094,2.52818e+32,0.03468,0.000689497,1.76499e-07,1.82839e-53,2.50363e+15,1.54159e+16,2.74007e+12,1.79223e+16
2.21086e+06,109955,1.02097e+07,4.97806e+24,3.43088e+21,3.0898e+10,0.127098,2.52776e+32,0.03468,0.000689497,1.76499e-07,1.82839e-53,2.50348e+15,1.54151e+16,2.73989e+12,1.79213e+16
2.3122e+06,109951,1.02095e+07,5.69433e+24,3.92428e+21,3.23142e+10,0.127102,2.52732e+32,0.03468,0.000689497,1.76499e-07,1.82839e-53,2.50332e+15,1.54143e+16,2.7397e+12,1.79203e+16
2.41278e+06,109947,1.02093e+07,6.47002e+24,4.45855e+21,3.37197e+10,0.127107,2.52686e+32,0.03468,0.000689497,1.76499e-07,1.82839e-53,2.50316e+15,1.54134e+16,2.73951e+12,1.79193e+16
2.51397e+06,109942,1.02091e+07,7.31851e+24,5.0429e+21,3.51339e+10,0.127111,2.52638e+32,0.03468,0.000689497,1.76499e-07,1.82839e-53,2.50298e+15,1.54125e+16,2.7393e+12,1.79182e+16
2.61549e+06,109937,1.02089e+07,8.24126e+24,5.67831e+21,3.65527e+10,0.127116,2.52588e+32,0.03468,0.000689497,1.76499e-07,1.82839e-53,2.5028e+15,1.54115e+16,2.73909e+12,1.7917e+16
2.71706e+06,109932,1.02087e+07,9.23886e+24,6.36519e+21,3.7972e+10,0.127121,2.52536e+32,0.03468,0.000689497,1.76499e-07,1.82839e-53,2.50261e+15,1.54105e+16,2.73886e+12,1.79158e+16
2.81836e+06,109927,1.02085e+07,1.03109e+25,7.10323e+21,3.93877e+10,0.127127,2.52482e+32,0.03468,0.000689497,1.76499e-07,1.82839e-53,2.50242e+15,1.54094e+16,2.73863e+12,1.79146e+16
2.91907e+06,109922,1.02083e+07,1.14559e+25,7.89139e+21,4.07951e+10,0.127132,2.52426e+32,0.03468,0.000689497,1.76499e-07,1.82839e-53,2.50222e+15,1.54083e+16,2.73839e+12,1.79133e+16
3.02113e+06,109916,1.0208e+07,1.26996e+25,8.74734e+21,4.22213e+10,0.127138,2.52368e+32,0.03468,0.000689497,1.76499e-07,1.82839e-53,2.50201e+15,1.54072e+16,2.73814e+12,1.7912e+16
3.12208e+06,109911,1.02078e+07,1.40153e+25,9.65277e+21,4.36321e+10,0.127144,2.52308e+32,0.03468,0.000689497,1.76499e-07,1.82839e-53,2.50179e+15,1.54061e+16,2.73789e+12,1.79106e+16
3.22401e+06,109905,1.02075e+07,1.54328e+25,1.0628e+22,4.50564e+10,0.12715,2.52246e+32,0.03468,0.000689497,1.76499e-07,1.82839e-53,2.50157e+15,1.54049e+16,2.73762e+12,1.79092e+16
3.32429e+06,109899,1.02073e+07,1.69176e+25,1.16495e+22,4.64578e+10,0.127156,2.52183e+32,0.03468,0.000689497,1.76499e-07,1.82839e-53,2.50134e+15,1.54036e+16,2.73735e+12,1.79077e+16
3.42514e+06,109892,1.0207e+07,1.85038e+25,1.27405e+22,4.7867e+10,0.127162,2.52117e+32,0.03468,0.000689497,1.76499e-07,1.82839e-53,2.5011e+15,1.54024e+16,2.73707e+12,1.79062e+16
3.52641e+06,109886,1.02067e+07,2.01934e+25,1.39025e+22,4.92822e+10,0.127169,2.5205e+32,0.03468,0.000689497,1.76499e-07,1.82839e-53,2.50086e+15,1.5401e+16,2.73678e+12,1.79046e+16
3.62796e+06,109879,1.02065e+07,2.19879e+25,1.51364e+22,5.07013e+10,0.127176,2.5198e+32,0.03468,0.000689497,1.76499e-07,1.82839e-53,2.50061e+15,1.53997e+16,2.73648e+12,1.7903e+16
3.72966e+06,109873,1.02062e+07,2.38884e+25,1.6443e+22,5.21224e+10,0.127183,2.51908e+32,0.03468,0.000689497,1.76499e-07,1.82839e-53,2.50035e+15,1.53983e+16,2.73617e+12,1.79014e+16
3.83134e+06,109865,1.02059e+07,2.5895e+25,1.78223e+22,5.35434e+10,0.12719,2.51834e+32,0.03468,0.000689497,1.76499e-07,1.82839e-53,2.50008e+15,1.53969e+16,2.73585e+12,1.78997e+16
3.93286e+06,109858,1.02056e+07,2.80074e+25,1.9274e+22,5.4962e+10,0.127197,2.51759e+32,0.03468,0.000689497,1.76499e-07,1.82839e-53,2.4998e+15,1.53954e+16,2.73552e+12,1.78979e+16
4.03406e+06,109851,1.02053e+07,3.02242e+25,2.07972e+22,5.63761e+10,0.127205,2.51681e+32,0.03468,0.000689497,1.76499e-07,1.82839e-53,2.49952e+15,1.53939e+16,2.73519e+12,1.78961e+16
4.13478e+06,109843,1.0205e+07,3.25436e+25,2.23906e+22,5.77834e+10,0.127212,2.51602e+32,0.03468,0.000689497,1.76499e-07,1.82839e-53,2.49924e+15,1.53924e+16,2.73485e+12,1.78943e+16
4.23484e+06,109836,1.02046e+07,3.49625e+25,2.4052e+22,5.91816e+10,0.12722,2.51522e+32,0.03468,0.000689497,1.76499e-07,1.82839e-53,2.49895e+15,1.53908e+16,2.73451e+12,1.78925e+16
4.33733e+06,109828,1.02043e+07,3.75613e+25,2.58366e+22,6.06137e+10,0.127228,2.51438e+32,0.03468,0.000689497,1.76499e-07,1.82839e-53,2.49864e+15,1.53892e+16,2.73414e+12,1.78905e+16
4.43898e+06,109819,1.02039e+07,4.02628e+25,2.76914e+22,6.20342e+10,0.127237,2.51352e+32,0.03468,0.000689497,1.76499e-07,1.82839e-53,2.49833e+15,1.53875e+16,2.73378e+12,1.78886e+16
4.53963e+06,109811,1.02036e+07,4.30621e+25,2.96129e+22,6.34405e+10,0.127245,2.51266e+32,0.03468,0.000689497,1.76499e-07,1.82839e-53,2.49802e+15,1.53858e+16,2.7334e+12,1.78866e+16
4.64256e+06,109803,1.02032e+07,4.6056e+25,3.16675e+22,6.48788e+10,0.127254,2.51175e+32,0.03468,0.000689497,1.76499e-07,1.82839e-53,2.49769e+15,1.53841e+16,2.73301e+12,1.78845e+16
4.74428e+06,109794,1.02029e+07,4.91479e+25,3.37889e+22,6.63001e+10,0.127263,2.51084e+32,0.03468,0.000689497,1.76499e-07,1.82839e-53,2.49736e+15,1.53823e+16,2.73262e+12,1.78824e+16
4.84462e+06,109785,1.02025e+07,5.23299e+25,3.59717e+22,6.7702e+10,0.127272,2.50992e+32,0.03468,0.000689497,1.76499e-07,1.82839e-53,2.49703e+15,1.53805e+16,2.73222e+12,1.78802e+16
4.94707e+06,109776,1.02021e+07,5.57179e+25,3.82952e+22,6.91336e+10,0.127281,2.50896e+32,0.03468,0.000689497,1.76499e-07,1.82839e-53,2.49668e+15,1.53786e+16,2.73181e+12,1.7878e+16
5.04793e+06,109767,1.02017e+07,5.91925e+25,4.06776e+22,7.05427e+10,0.127291,2.508e+32,0.03468,0.000689497,1.76499e-07,1.82839e-53,2.49633e+15,1.53767e+16,2.73139e+12,1.78758e+16
5.15084e+06,109757,1.02013e+07,6.28838e+25,4.32079e+22,7.19806e+10,0.127301,2.50699e+32,0.03468,0.000689497,1.76499e-07,1.82839e-53,2.49596e+15,1.53748e+16,2.73096e+12,1.78735e+16
5.25193e+06,109747,1.02009e+07,6.66558e+25,4.57929e+22,7.3393e+10,0.127311,2.50599e+32,0.03468,0.000689497,1.76499e-07,1.82839e-53,2.4956e+15,1.53728e+16,2.73053e+12,1.78712e+16
5.355e+06,109737,1.02005e+07,7.0654e+25,4.85322e+22,7.48332e+10,0.127321,2.50495e+32,0.03468,0.000689497,1.76499e-07,1.82839e-53,2.49522e+15,1.53708e+16,2.73008e+12,1.78687e+16
5.45602e+06,109727,1.02001e+07,7.47245e+25,5.13203e+22,7.62446e+10,0.127331,2.5039e+32,0.03468,0.000689497,1.76499e-07,1.82839e-53,2.49484e+15,1.53688e+16,2.72963e+12,1.78663e+16
5.55895e+06,109717,1.01996e+07,7.90294e+25,5.42683e+22,7.76827e+10,0.127342,2.50282e+32,0.03468,0.000689497,1.76499e-07,1.82839e-53,2.49445e+15,1.53666e+16,2.72916e+12,1.78638e+16
5.65959e+06,109707,1.01992e+07,8.33953e+25,5.72572e+22,7.90889e+10,0.127352,2.50175e+32,0.03468,0.000689497,1.76499e-07,1.82839e-53,2.49406e+15,1.53645e+16,2.7287e+12,1.78613e+16
5.76206e+06,109696,1.01988e+07,8.80024e+25,6.04104e+22,8.05205e+10,0.127363,2.50063e+32,0.03468,0.000689497,1.76499e-07,1.82839e-53,2.49365e+15,1.53624e+16,2.72822e+12,1.78588e+16
5.86639e+06,109685,1.01983e+07,9.2864e+25,6.37369e+22,8.19781e+10,0.127375,2.49947e+32,0.03468,0.000689497,1.76499e-07,1.82839e-53,2.49323e+15,1.53601e+16,2.72772e+12,1.78561e+16
5.96815e+06,109674,1.01978e+07,9.77749e+25,6.70961e+22,8.33998e+10,0.127386,2.49833e+32,0.03468,0.000689497,1.76499e-07,1.82839e-53,2.49282e+15,1.53579e+16,2.72722e+12,1.78534e+16
6.07168e+06,109662,1.01973e+07,1.02945e+26,7.06319e+22,8.48462e+10,0.127398,2.49714e+32,0.03468,0.000689497,1.76499e-07,1.82839e-53,2.49238e+15,1.53556e+16,2.72671e+12,1.78507e+16
6.17239e+06,109651,1.01969e+07,1.08147e+26,7.41879e+22,8.62532e+10,0.127409,2.49597e+32,0.03468,0.000689497,1.76499e-07,1.82839e-53,2.49196e+15,1.53533e+16,2.7262e+12,1.7848e+16
6.27478e+06,109640,1.01964e+07,1.13611e+26,7.79223e+22,8.76835e+10,0.127421,2.49476e+32,0.03468,0.000689497,1.76499e-07,1.82839e-53,2.49152e+15,1.53509e+16,2.72568e+12,1.78451e+16
6.37887e+06,109628,1.01959e+07,1.19351e+26,8.18443e+22,8.91377e+10,0.127434,2.4935e+32,0.03468,0.000689497,1.76499e-07,1.82839e-53,2.49106e+15,1.53485e+16,2.72514e+12,1.78422e+16
6.47984e+06,109616,1.01954e+07,1.25101e+26,8.57715e+22,9.05483e+10,0.127446,2.49227e+32,0.03468,0.000689497,1.76499e-07,1.82839e-53,2.49061e+15,1.5346e+16,2.7246e+12,1.78394e+16
6.58241e+06,109603,1.01949e+07,1.31128e+26,8.98867e+22,9.19812e+10,0.127458,2.491e+32,0.03468,0.000689497,1.76499e-07,1.82839e-53,2.49015e+15,1.53436e+16,2.72405e+12,1.78364e+16
6.68662e+06,109591,1.01943e+07,1.37445e+26,9.41987e+22,9.34369e+10,0.127471,2.48969e+32,0.03468,0.000689497,1.76499e-07,1.82839e-53,2.48967e+15,1.5341e+16,2.72348e+12,1.78334e+16
6.78739e+06,109578,1.01938e+07,1.43744e+26,9.8497e+22,9.48448e+10,0.127484,2.4884e+32,0.03468,0.000689497,1.76499e-07,1.82839e-53,2.4892e+15,1.53385e+16,2.72293e+12,1.78304e+16
6.8897e+06,109566,1.01933e+07,1.50332e+26,1.02991e+23,9.62739e+10,0.127497,2.48707e+32,0.03468,0.000689497,1.76499e-07,1.82839e-53,2.48872e+15,1.53359e+16,2.72235e+12,1.78273e+16
6.99355e+06,109552,1.01927e+07,1.57221e+26,1.07689e+23,9.77246e+10,0.127511,2.48571e+32,0.03468,0.000689497,1.76499e-07,1.82839e-53,2.48822e+15,1.53332e+16,2.72176e+12,1.78241e+16
7.09366e+06,109540,1.01922e+07,1.64059e+26,1.1235e+23,9.9123e+10,0.127524,2.48437e+32,0.03468,0.000689497,1.76499e-07,1.82839e-53,2.48773e+15,1.53306e+16,2.72118e+12,1.7821e+16
7.19521e+06,109526,1.01916e+07,1.71193e+26,1.17212e+23,1.00542e+11,0.127538,2.483e+32,0.03468,0.000689497,1.76499e-07,1.82839e-53,2.48723e+15,1.53279e+16,2.72059e+12,1.78178e+16
7.29822e+06,109513,1.0191e+07,1.78638e+26,1.22284e+23,1.0198e+11,0.127552,2.48159e+32,0.03468,0.000689497,1.76499e-07,1.82839e-53,2.48671e+15,1.53251e+16,2.71997e+12,1.78145e+16
7.40271e+06,109499,1.01905e+07,1.86407e+26,1.27574e+23,1.0344e+11,0.127566,2.48014e+32,0.03468,0.000689497,1.76499e-07,1.82839e-53,2.48618e+15,1.53223e+16,2.71934e+12,1.78112e+16
7.50308e+06,109485,1.01899e+07,1.94078e+26,1.32797e+23,1.04842e+11,0.12758,2.47872e+32,0.03468,0.000689497,1.76499e-07,1.82839e-53,2.48567e+15,1.53195e+16,2.71873e+12,1.78079e+16
7.60482e+06,109471,1.01893e+07,2.02065e+26,1.38232e+23,1.06263e+11,0.127595,2.47727e+32,0.03468,0.000689497,1.76499e-07,1.82839e-53,2.48514e+15,1.53166e+16,2.7181e+12,1.78045e+16
7.70794e+06,109457,1.01887e+07,2.10381e+26,1.43889e+23,1.07704e+11,0.127609,2.47578e+32,0.03468,0.000689497,1.76499e-07,1.82839e-53,2.48459e+15,1.53137e+16,2.71745e+12,1.7801e+16
7.81247e+06,109442,1.01881e+07,2.19039e+26,1.49776e+23,1.09164e+11,0.127625,2.47425e+32,0.03468,0.000689497,1.76499e-07,1.82839e-53,2.48403e+15,1.53107e+16,2.71679e+12,1.77974e+16
7.9125e+06,109427,1.01875e+07,2.27543e+26,1.55557e+23,1.10561e+11,0.127639,2.47277e+32,0.03468,0.000689497,1.76499e-07,1.82839e-53,2.48349e+15,1.53078e+16,2.71614e+12,1.7794e+16
8.01382e+06,109413,1.01868e+07,2.36377e+26,1.61559e+23,1.11976e+11,0.127655,2.47125e+32,0.03468,0.000689497,1.76499e-07,1.82839e-53,2.48293e+15,1.53048e+16,2.71548e+12,1.77904e+16
8.11643e+06,109398,1.01862e+07,2.45554e+26,1.67793e+23,1.13409e+11,0.12767,2.46969e+32,0.03468,0.000689497,1.76499e-07,1.82839e-53,2.48236e+15,1.53017e+16,2.7148e+12,1.77868e+16
8.22037e+06,109382,1.01855e+07,2.55087e+26,1.74265e+23,1.14861e+11,0.127686,2.46809e+32,0.03468,0.000689497,1.76499e-07,1.82839e-53,2.48178e+15,1.52986e+16,2.71411e+12,1.77831e+16
8.32564e+06,109366,1.01849e+07,2.6499e+26,1.80987e+23,1.16331e+11,0.127702,2.46646e+32,0.03468,0.000689497,1.76499e-07,1.82839e-53,2.48118e+15,1.52954e+16,2.7134e+12,1.77793e+16
8.42596e+06,109351,1.01842e+07,2.74662e+26,1.87548e+23,1.17732e+11,0.127718,2.46488e+32,0.03468,0.000689497,1.76499e-07,1.82839e-53,2.4806e+15,1.52923e+16,2.71271e+12,1.77756e+16
8.5275e+06,109335,1.01836e+07,2.84687e+26,1.94347e+23,1.1915e+11,0.127734,2.46326e+32,0.03468,0.000689497,1.76499e-07,1.82839e-53,2.48e+15,1.52891e+16,2.712e+12,1.77718e+16
8.63026e+06,109319,1.01829e+07,2.95077e+26,2.0139e+23,1.20585e+11,0.127751,2.46161e+32,0.03468,0.000689497,1.76499e-07,1.82839e-53,2.4794e+15,1.52858e+16,2.71128e+12,1.77679e+16
8.73427e+06,109303,1.01822e+07,3.05847e+26,2.08688e+23,1.22038e+11,0.127768,2.45992e+32,0.03468,0.000689497,1.76499e-07,1.82839e-53,2.47877e+15,1.52825e+16,2.71055e+12,1.77639e+16
8.83954e+06,109286,1.01815e+07,3.1701e+26,2.16249e+23,1.23508e+11,0.127785,2.45818e+32,0.03468,0.000689497,1.76499e-07,1.82839e-53,2.47814e+15,1.5279e+16,2.70979e+12,1.77599e+16
8.94608e+06,109269,1.01808e+07,3.2858e+26,2.24082e+23,1.24996e+11,0.127803,2.45641e+32,0.03468,0.000689497,1.76499e-07,1.82839e-53,2.47749e+15,1.52755e+16,2.70902e+12,1.77557e+16
9.04713e+06,109252,1.01801e+07,3.39811e+26,2.31682e+23,1.26407e+11,0.12782,2.45471e+32,0.03468,0.000689497,1.76499e-07,1.82839e-53,2.47686e+15,1.52722e+16,2.70827e+12,1.77517e+16
9.14934e+06,109235,1.01794e+07,3.51425e+26,2.39538e+23,1.27834e+11,0.127838,2.45297e+32,0.03468,0.000689497,1.76499e-07,1.82839e-53,2.47622e+15,1.52687e+16,2.70751e+12,1.77477e+16
9.2527e+06,109218,1.01786e+07,3.63437e+26,2.47659e+23,1.29278e+11,0.127856,2.4512e+32,0.03468,0.000689497,1.76499e-07,1.82839e-53,2.47557e+15,1.52652e+16,2.70674e+12,1.77435e+16
9.35724e+06,109200,1.01779e+07,3.75858e+26,2.56054e+23,1.30737e+11,0.127874,2.44938e+32,0.03468,0.000689497,1.76499e-07,1.82839e-53,2.4749e+15,1.52616e+16,2.70594e+12,1.77392e+16
9.46297e+06,109182,1.01771e+07,3.88705e+26,2.64732e+23,1.32214e+11,0.127893,2.44752e+32,0.03468,0.000689497,1.76499e-07,1.82839e-53,2.47421e+15,1.5258e+16,2.70513e+12,1.77349e+16
9.5699e+06,109164,1.01763e+07,4.0199e+26,2.73702e+23,1.33707e+11,0.127912,2.44563e+32,0.03468,0.000689497,1.76499e-07,1.82839e-53,2.47351e+15,1.52542e+16,2.7043e+12,1.77304e+16
9.6708e+06,109146,1.01756e+07,4.14799e+26,2.82347e+23,1.35116e+11,0.12793,2.44382e+32,0.03468,0.000689497,1.76499e-07,1.82839e-53,2.47285e+15,1.52506e+16,2.70351e+12,1.77262e+16
9.77277e+06,109128,1.01748e+07,4.28017e+26,2.91263e+23,1.3654e+11,0.127949,2.44198e+32,0.03468,0.000689497,1.76499e-07,1.82839e-53,2.47217e+15,1.5247e+16,2.7027e+12,1.77218e+16
9.87582e+06,109109,1.01741e+07,4.41655e+26,3.00458e+23,1.37978e+11,0.127968,2.44009e+32,0.03468,0.000689497,1.76499e-07,1.82839e-53,2.47147e+15,1.52432e+16,2.70188e+12,1.77174e+16
9.97996e+06,109091,1.01733e+07,4.55728e+26,3.09943e+23,1.39432e+11,0.127987,2.43817e+32,0.03468,0.000689497,1.76499e-07,1.82839e-53,2.47076e+15,1.52394e+16,2.70104e+12,1.77129e+16
1.00852e+07,109072,1.01724e+07,4.70249e+26,3.19724e+23,1.40902e+11,0.128007,2.43621e+32,0.03468,0.000689497,1.76499e-07,1.82839e-53,2.47004e+15,1.52355e+16,2.70018e+12,1.77083e+16
1.01916e+07,109052,1.01716e+07,4.85234e+26,3.29813e+23,1.42387e+11,0.128028,2.43421e+32,0.03468,0.000689497,1.76499e-07,1.82839e-53,2.4693e+15,1.52315e+16,2.6993e+12,1.77035e+16
1.02991e+07,109032,1.01708e+07,5.00695e+26,3.40217e+23,1.43888e+11,0.128048,2.43217e+32,0.03468,0.000689497,1.76499e-07,1.82839e-53,2.46854e+15,1.52275e+16,2.6984e+12,1.76987e+16
1.03999e+07,109013,1.017e+07,5.15493e+26,3.5017e+23,1.45296e+11,0.128068,2.43024e+32,0.03468,0.000689497,1.76499e-07,1.82839e-53,2.46783e+15,1.52236e+16,2.69755e+12,1.76942e+16
1.05018e+07,108994,1.01692e+07,5.30729e+26,3.60412e+23,1.46717e+11,0.128088,2.42827e+32,0.03468,0.000689497,1.76499e-07,1.82839e-53,2.4671e+15,1.52197e+16,2.69669e+12,1.76895e+16
1.06046e+07,108974,1.01683e+07,5.46414e+26,3.70951e+23,1.48153e+11,0.128108,2.42626e+32,0.03468,0.000689497,1.76499e-07,1.82839e-53,2.46636e+15,1.52157e+16,2.69581e+12,1.76848e+16
1.07084e+07,108954,1.01675e+07,5.62564e+26,3.81796e+23,1.49603e+11,0.128129,2.42422e+32,0.03468,0.000689497,1.76499e-07,1.82839e-53,2.4656e+15,1.52117e+16,2.69491e+12,1.76799e+16
1.08133e+07,108933,1.01666e+07,5.7919e+26,3.92956e+23,1.51067e+11,0.128151,2.42214e+32,0.03468,0.000689497,1.76499e-07,1.82839e-53,2.46483e+15,1.52075e+16,2.69399e+12,1.7675e+16
1.09192e+07,108912,1.01657e+07,5.96308e+26,4.0444e+23,1.52546e+11,0.128172,2.42002e+32,0.03468,0.000689497,1.76499e-07,1.82839e-53,2.46404e+15,1.52033e+16,2.69306e+12,1.767e+16
1.10262e+07,108891,1.01648e+07,6.13932e+26,4.16257e+23,1.54039e+11,0.128194,2.41785e+32,0.03468,0.000689497,1.76499e-07,1.82839e-53,2.46324e+15,1.5199e+16,2.6921e+12,1.76649e+16
1.11342e+07,108869,1.01639e+07,6.32077e+26,4.28416e+23,1.55547e+11,0.128217,2.41565e+32,0.03468,0.000689497,1.76499e-07,1.82839e-53,2.46242e+15,1.51946e+16,2.69113e+12,1.76597e+16
1.12349e+07,108849,1.01631e+07,6.49301e+26,4.39952e+23,1.56952e+11,0.128238,2.41358e+32,0.03468,0.000689497,1.76499e-07,1.82839e-53,2.46165e+15,1.51904e+16,2.69022e+12,1.76548e+16
