X = 0.734
Y = 0.25
Z = 0.016
mu = 0.601142
Radius,Density,Temp,Mass,Lum,OptD,Kff,KH,Kes,PP,CNO,3a,Deg,Gas,Rad,TotPres
0,0,0,0,0,0,-nan,0,0.03468,9.7754e-05,1.65328e-11,2.31885e-62,0,0,0,0
1,98400,6.44304e+06,412177,40.292,57956.1,0.588985,3.79617e+30,0.03468,9.7754e-05,1.65328e-11,2.31885e-62,2.08054e+15,8.70576e+15,4.34564e+11,1.07867e+16
30001,98400,6.44304e+06,1.11299e+19,1.08799e+15,1.73874e+09,0.588985,3.79617e+30,0.03468,9.7754e-05,1.65328e-11,2.31885e-62,2.08054e+15,8.70576e+15,4.34564e+11,1.07867e+16
70001,98399.9,6.44304e+06,1.41383e+20,1.38207e+16,4.05699e+09,0.588985,3.79616e+30,0.03468,9.7754e-05,1.65328e-11,2.31885e-62,2.08054e+15,8.70575e+15,4.34564e+11,1.07867e+16
150001,98399.8,6.44303e+06,1.39112e+21,1.35987e+17,8.69347e+09,0.588986,3.79613e+30,0.03468,9.7754e-05,1.65328e-11,2.31885e-62,2.08053e+15,8.70573e+15,4.34562e+11,1.07867e+16
250001,98399.3,6.44302e+06,6.44032e+21,6.2956e+17,1.44891e+10,0.588989,3.79605e+30,0.03468,9.7754e-05,1.65328e-11,2.31885e-62,2.08052e+15,8.70567e+15,4.34559e+11,1.07866e+16
350001,98398.7,6.443e+06,1.76721e+22,1.72748e+18,2.02847e+10,0.588992,3.79594e+30,0.03468,9.7754e-05,1.65328e-11,2.31885e-62,2.0805e+15,8.70559e+15,4.34553e+11,1.07865e+16
450001,98397.8,6.44298e+06,3.75594e+22,3.67144e+18,2.60803e+10,0.588997,3.79578e+30,0.03468,9.7754e-05,1.65328e-11,2.31884e-62,2.08047e+15,8.70548e+15,4.34546e+11,1.07864e+16
550001,98396.7,6.44294e+06,6.8575e+22,6.7031e+18,3.18759e+10,0.589003,3.79559e+30,0.03468,9.7754e-05,1.65327e-11,2.31884e-62,2.08043e+15,8.70534e+15,4.34538e+11,1.07862e+16
650001,98395.5,6.4429e+06,1.13191e+23,1.10641e+19,3.76715e+10,0.58901,3.79536e+30,0.03468,9.7754e-05,1.65327e-11,2.31884e-62,2.08038e+15,8.70517e+15,4.34527e+11,1.0786e+16
750001,98394,6.44286e+06,1.73881e+23,1.69958e+19,4.34671e+10,0.589018,3.79509e+30,0.03468,9.7754e-05,1.65327e-11,2.31884e-62,2.08033e+15,8.70498e+15,4.34515e+11,1.07857e+16
850001,98392.3,6.44281e+06,2.53117e+23,2.47399e+19,4.92627e+10,0.589027,3.79478e+30,0.03468,9.7754e-05,1.65327e-11,2.31884e-62,2.08027e+15,8.70476e+15,4.34501e+11,1.07855e+16
950001,98390.4,6.44275e+06,3.53371e+23,3.45376e+19,5.50582e+10,0.589038,3.79444e+30,0.03468,9.7754e-05,1.65327e-11,2.31884e-62,2.0802e+15,8.70451e+15,4.34485e+11,1.07851e+16
1.05e+06,98388.2,6.44269e+06,4.77114e+23,4.66302e+19,6.08538e+10,0.58905,3.79406e+30,0.03468,9.7754e-05,1.65327e-11,2.31884e-62,2.08013e+15,8.70423e+15,4.34468e+11,1.07848e+16
1.15e+06,98385.9,6.44261e+06,6.26817e+23,6.12589e+19,6.66493e+10,0.589063,3.79363e+30,0.03468,9.7754e-05,1.65327e-11,2.31884e-62,2.08005e+15,8.70393e+15,4.34449e+11,1.07844e+16
1.25e+06,98383.3,6.44254e+06,8.04953e+23,7.86647e+19,7.24449e+10,0.589077,3.79317e+30,0.03468,9.77539e-05,1.65327e-11,2.31883e-62,2.07996e+15,8.7036e+15,4.34428e+11,1.0784e+16
1.35e+06,98380.6,6.44245e+06,1.01399e+24,9.90884e+19,7.82404e+10,0.589092,3.79267e+30,0.03468,9.77539e-05,1.65327e-11,2.31882e-62,2.07986e+15,8.70324e+15,4.34405e+11,1.07835e+16
1.45e+06,98377.6,6.44236e+06,1.2564e+24,1.22771e+20,8.40359e+10,0.589109,3.79214e+30,0.03468,9.77539e-05,1.65327e-11,2.31882e-62,2.07975e+15,8.70286e+15,4.34381e+11,1.0783e+16
1.55e+06,98374.4,6.44226e+06,1.53466e+24,1.49952e+20,8.98314e+10,0.589126,3.79156e+30,0.03468,9.77539e-05,1.65327e-11,2.31882e-62,2.07964e+15,8.70244e+15,4.34355e+11,1.07825e+16
1.65e+06,98371,6.44216e+06,1.85123e+24,1.80874e+20,9.56269e+10,0.589145,3.79095e+30,0.03468,9.77538e-05,1.65326e-11,2.31881e-62,2.07952e+15,8.702e+15,4.34327e+11,1.0782e+16
1.75e+06,98367.4,6.44205e+06,2.20858e+24,2.15775e+20,1.01422e+11,0.589165,3.7903e+30,0.03468,9.77538e-05,1.65326e-11,2.3188e-62,2.07939e+15,8.70154e+15,4.34297e+11,1.07814e+16
1.85e+06,98363.6,6.44194e+06,2.60918e+24,2.54896e+20,1.07218e+11,0.589186,3.78961e+30,0.03468,9.77536e-05,1.65325e-11,2.31876e-62,2.07926e+15,8.70104e+15,4.34266e+11,1.07807e+16
1.95e+06,98359.5,6.44181e+06,3.05549e+24,2.98476e+20,1.13013e+11,0.589209,3.78888e+30,0.03468,9.77534e-05,1.65324e-11,2.31874e-62,2.07912e+15,8.70052e+15,4.34233e+11,1.07801e+16
2.05e+06,98355.3,6.44168e+06,3.54999e+24,3.46756e+20,1.18809e+11,0.589232,3.78811e+30,0.03468,9.77535e-05,1.65324e-11,2.31874e-62,2.07897e+15,8.69997e+15,4.34198e+11,1.07794e+16
2.15e+06,98350.8,6.44155e+06,4.09515e+24,3.99975e+20,1.24604e+11,0.589257,3.78731e+30,0.03468,9.77534e-05,1.65323e-11,2.31872e-62,2.07881e+15,8.69939e+15,4.34161e+11,1.07786e+16
2.25e+06,98346.2,6.4414e+06,4.69342e+24,4.58371e+20,1.304e+11,0.589283,3.78647e+30,0.03468,9.77532e-05,1.65322e-11,2.31869e-62,2.07865e+15,8.69878e+15,4.34123e+11,1.07779e+16
2.35e+06,98341.3,6.44126e+06,5.34727e+24,5.22183e+20,1.36195e+11,0.58931,3.78559e+30,0.03468,9.77531e-05,1.65322e-11,2.31867e-62,2.07847e+15,8.69815e+15,4.34083e+11,1.07771e+16
2.45e+06,98336.2,6.4411e+06,6.05918e+24,5.91651e+20,1.4199e+11,0.589339,3.78467e+30,0.03468,9.77527e-05,1.65319e-11,2.31859e-62,2.0783e+15,8.69749e+15,4.34041e+11,1.07762e+16
2.55e+06,98330.9,6.44094e+06,6.83159e+24,6.67012e+20,1.47786e+11,0.589368,3.78371e+30,0.03468,9.77522e-05,1.65317e-11,2.31851e-62,2.07811e+15,8.69681e+15,4.33997e+11,1.07753e+16
2.65e+06,98325.4,6.44077e+06,7.66698e+24,7.48504e+20,1.53581e+11,0.589399,3.78272e+30,0.03468,9.77523e-05,1.65317e-11,2.31853e-62,2.07791e+15,8.69609e+15,4.33952e+11,1.07744e+16
2.75e+06,98319.7,6.4406e+06,8.5678e+24,8.36366e+20,1.59376e+11,0.589431,3.78168e+30,0.03468,9.77521e-05,1.65316e-11,2.31849e-62,2.07771e+15,8.69535e+15,4.33905e+11,1.07735e+16
2.85e+06,98313.7,6.44042e+06,9.53653e+24,9.30833e+20,1.65171e+11,0.589464,3.78061e+30,0.03468,9.77519e-05,1.65314e-11,2.31844e-62,2.0775e+15,8.69458e+15,4.33856e+11,1.07725e+16
2.95e+06,98307.6,6.44023e+06,1.05756e+25,1.03214e+21,1.70967e+11,0.589498,3.77951e+30,0.03468,9.77517e-05,1.65313e-11,2.31841e-62,2.07729e+15,8.69378e+15,4.33806e+11,1.07715e+16
3.05e+06,98301.2,6.44003e+06,1.16875e+25,1.14054e+21,1.76762e+11,0.589533,3.77836e+30,0.03468,9.77511e-05,1.6531e-11,2.3183e-62,2.07706e+15,8.69296e+15,4.33754e+11,1.07705e+16
3.15e+06,98294.6,6.43983e+06,1.28747e+25,1.25624e+21,1.82557e+11,0.58957,3.77718e+30,0.03468,9.77504e-05,1.65305e-11,2.31817e-62,2.07683e+15,8.69211e+15,4.337e+11,1.07694e+16
3.25e+06,98287.9,6.43963e+06,1.41396e+25,1.3795e+21,1.88352e+11,0.589608,3.77595e+30,0.03468,9.77506e-05,1.65307e-11,2.31821e-62,2.07659e+15,8.69123e+15,4.33644e+11,1.07683e+16
3.35e+06,98280.9,6.43941e+06,1.54847e+25,1.51055e+21,1.94147e+11,0.589647,3.77469e+30,0.03468,9.77503e-05,1.65305e-11,2.31816e-62,2.07635e+15,8.69032e+15,4.33586e+11,1.07671e+16
3.45e+06,98273.7,6.43919e+06,1.69125e+25,1.64962e+21,1.99942e+11,0.589687,3.7734e+30,0.03468,9.77499e-05,1.65303e-11,2.31808e-62,2.07609e+15,8.68939e+15,4.33527e+11,1.07659e+16
3.55e+06,98266.2,6.43897e+06,1.84253e+25,1.79695e+21,2.05738e+11,0.589728,3.77206e+30,0.03468,9.77497e-05,1.65301e-11,2.31803e-62,2.07583e+15,8.68843e+15,4.33466e+11,1.07647e+16
3.65e+06,98258.6,6.43874e+06,2.00257e+25,1.95277e+21,2.11533e+11,0.589771,3.77069e+30,0.03468,9.7749e-05,1.65297e-11,2.3179e-62,2.07556e+15,8.68744e+15,4.33404e+11,1.07634e+16
3.75e+06,98250.8,6.4385e+06,2.17161e+25,2.11732e+21,2.17328e+11,0.589814,3.76928e+30,0.03468,9.77479e-05,1.65291e-11,2.31771e-62,2.07529e+15,8.68642e+15,4.33339e+11,1.07621e+16
3.85e+06,98242.7,6.43825e+06,2.3499e+25,2.29083e+21,2.23123e+11,0.589859,3.76783e+30,0.03468,9.77482e-05,1.65292e-11,2.31777e-62,2.075e+15,8.68538e+15,4.33273e+11,1.07608e+16
3.95e+06,98234.5,6.438e+06,2.53768e+25,2.47353e+21,2.28917e+11,0.589905,3.76635e+30,0.03468,9.77479e-05,1.6529e-11,2.31771e-62,2.07471e+15,8.68431e+15,4.33205e+11,1.07595e+16
4.05e+06,98226,6.43774e+06,2.73519e+25,2.66566e+21,2.34712e+11,0.589953,3.76482e+30,0.03468,9.77474e-05,1.65287e-11,2.31761e-62,2.07442e+15,8.68321e+15,4.33136e+11,1.07581e+16
4.15e+06,98217.3,6.43748e+06,2.94269e+25,2.86745e+21,2.40507e+11,0.590001,3.76326e+30,0.03468,9.77471e-05,1.65285e-11,2.31755e-62,2.07411e+15,8.68209e+15,4.33065e+11,1.07566e+16
4.25e+06,98208.4,6.4372e+06,3.16041e+25,3.07912e+21,2.46302e+11,0.590051,3.76167e+30,0.03468,9.77462e-05,1.6528e-11,2.31738e-62,2.0738e+15,8.68094e+15,4.32992e+11,1.07552e+16
4.35e+06,98199.3,6.43693e+06,3.3886e+25,3.30092e+21,2.52097e+11,0.590102,3.76003e+30,0.03468,9.77448e-05,1.65272e-11,2.31715e-62,2.07348e+15,8.67976e+15,4.32917e+11,1.07537e+16
4.45e+06,98190,6.43664e+06,3.6275e+25,3.53306e+21,2.57892e+11,0.590154,3.75836e+30,0.03468,9.77453e-05,1.65275e-11,2.31722e-62,2.07315e+15,8.67855e+15,4.3284e+11,1.07521e+16
4.55e+06,98180.5,6.43635e+06,3.87736e+25,3.77579e+21,2.63686e+11,0.590207,3.75665e+30,0.03468,9.77449e-05,1.65272e-11,2.31714e-62,2.07281e+15,8.67732e+15,4.32762e+11,1.07506e+16
4.65e+06,98170.8,6.43606e+06,4.13843e+25,4.02933e+21,2.69481e+11,0.590261,3.7549e+30,0.03468,9.77443e-05,1.65268e-11,2.31702e-62,2.07247e+15,8.67606e+15,4.32682e+11,1.0749e+16
4.75e+06,98160.8,6.43575e+06,4.41094e+25,4.29391e+21,2.75276e+11,0.590317,3.75312e+30,0.03468,9.77439e-05,1.65266e-11,2.31696e-62,2.07212e+15,8.67477e+15,4.32601e+11,1.07473e+16
4.85e+06,98150.7,6.43544e+06,4.69514e+25,4.56976e+21,2.8107e+11,0.590374,3.7513e+30,0.03468,9.77428e-05,1.65259e-11,2.31675e-62,2.07177e+15,8.67346e+15,4.32517e+11,1.07457e+16
4.95e+06,98140.3,6.43513e+06,4.99127e+25,4.85711e+21,2.86865e+11,0.590432,3.74944e+30,0.03468,9.77412e-05,1.6525e-11,2.31647e-62,2.0714e+15,8.67211e+15,4.32432e+11,1.07439e+16
5.05e+06,98129.7,6.4348e+06,5.29958e+25,5.15618e+21,2.92659e+11,0.590491,3.74755e+30,0.03468,9.77417e-05,1.65253e-11,2.31656e-62,2.07103e+15,8.67075e+15,4.32346e+11,1.07422e+16
5.15e+06,98119,6.43447e+06,5.62032e+25,5.4672e+21,2.98454e+11,0.590551,3.74562e+30,0.03468,9.77412e-05,1.6525e-11,2.31647e-62,2.07065e+15,8.66935e+15,4.32257e+11,1.07404e+16
5.25e+06,98108,6.43414e+06,5.95371e+25,5.7904e+21,3.04248e+11,0.590613,3.74365e+30,0.03468,9.77405e-05,1.65246e-11,2.31633e-62,2.07026e+15,8.66793e+15,4.32167e+11,1.07386e+16
5.35e+06,98096.8,6.4338e+06,6.30001e+25,6.126e+21,3.10043e+11,0.590675,3.74164e+30,0.03468,9.77401e-05,1.65243e-11,2.31625e-62,2.06987e+15,8.66648e+15,4.32075e+11,1.07368e+16
5.45e+06,98085.4,6.43345e+06,6.65946e+25,6.47424e+21,3.15837e+11,0.590739,3.7396e+30,0.03468,9.77389e-05,1.65235e-11,2.31601e-62,2.06947e+15,8.665e+15,4.31981e+11,1.07349e+16
5.55e+06,98073.7,6.43309e+06,7.03231e+25,6.83532e+21,3.21631e+11,0.590804,3.73752e+30,0.03468,9.77369e-05,1.65225e-11,2.31568e-62,2.06906e+15,8.66349e+15,4.31886e+11,1.0733e+16
5.65e+06,98061.9,6.43273e+06,7.41879e+25,7.20948e+21,3.27425e+11,0.590871,3.73541e+30,0.03468,9.77376e-05,1.65228e-11,2.31579e-62,2.06864e+15,8.66196e+15,4.31789e+11,1.0731e+16
5.75e+06,98049.9,6.43236e+06,7.81914e+25,7.59694e+21,3.3322e+11,0.590938,3.73326e+30,0.03468,9.7737e-05,1.65225e-11,2.31568e-62,2.06822e+15,8.6604e+15,4.3169e+11,1.07291e+16
5.85e+06,98037.6,6.43199e+06,8.23362e+25,7.99792e+21,3.39014e+11,0.591007,3.73107e+30,0.03468,9.77362e-05,1.65219e-11,2.31552e-62,2.06779e+15,8.65882e+15,4.3159e+11,1.0727e+16
5.95e+06,98025.2,6.43161e+06,8.66245e+25,8.41265e+21,3.44808e+11,0.591077,3.72885e+30,0.03468,9.77357e-05,1.65216e-11,2.31543e-62,2.06735e+15,8.6572e+15,4.31488e+11,1.0725e+16
6.05e+06,98012.5,6.43122e+06,9.10589e+25,8.84134e+21,3.50602e+11,0.591148,3.72659e+30,0.03468,9.77343e-05,1.65208e-11,2.31516e-62,2.06691e+15,8.65556e+15,4.31384e+11,1.07229e+16
6.15e+06,97999.6,6.43083e+06,9.56417e+25,9.28422e+21,3.56396e+11,0.59122,3.72429e+30,0.03468,9.77321e-05,1.65195e-11,2.31478e-62,2.06645e+15,8.6539e+15,4.31278e+11,1.07208e+16
6.25e+06,97986.5,6.43043e+06,1.00375e+26,9.7415e+21,3.6219e+11,0.591293,3.72196e+30,0.03468,9.77328e-05,1.65199e-11,2.3149e-62,2.06599e+15,8.6522e+15,4.31171e+11,1.07186e+16
6.35e+06,97973.2,6.43002e+06,1.05262e+26,1.02134e+22,3.67984e+11,0.591368,3.71959e+30,0.03468,9.77322e-05,1.65195e-11,2.31479e-62,2.06553e+15,8.65048e+15,4.31062e+11,1.07164e+16
6.45e+06,97959.7,6.42961e+06,1.10305e+26,1.07002e+22,3.73777e+11,0.591444,3.71718e+30,0.03468,9.77313e-05,1.65189e-11,2.3146e-62,2.06505e+15,8.64873e+15,4.30951e+11,1.07142e+16
6.55e+06,97946,6.42919e+06,1.15506e+26,1.1202e+22,3.79571e+11,0.591521,3.71474e+30,0.03468,9.77306e-05,1.65186e-11,2.3145e-62,2.06457e+15,8.64696e+15,4.30839e+11,1.0712e+16
6.65e+06,97932.1,6.42876e+06,1.20867e+26,1.17191e+22,3.85365e+11,0.591599,3.71227e+30,0.03468,9.77291e-05,1.65176e-11,2.3142e-62,2.06408e+15,8.64516e+15,4.30725e+11,1.07097e+16
6.75e+06,97918,6.42833e+06,1.26391e+26,1.22516e+22,3.91159e+11,0.591679,3.70975e+30,0.03468,9.77266e-05,1.65162e-11,2.31377e-62,2.06358e+15,8.64333e+15,4.30609e+11,1.07073e+16
6.85e+06,97903.6,6.42789e+06,1.3208e+26,1.27999e+22,3.96952e+11,0.591759,3.7072e+30,0.03468,9.77274e-05,1.65167e-11,2.31391e-62,2.06308e+15,8.64147e+15,4.30491e+11,1.0705e+16
6.95e+06,97889.1,6.42745e+06,1.37938e+26,1.33641e+22,4.02746e+11,0.591841,3.70462e+30,0.03468,9.77268e-05,1.65162e-11,2.31378e-62,2.06257e+15,8.63959e+15,4.30372e+11,1.07026e+16
7.05e+06,97874.3,6.427e+06,1.43965e+26,1.39445e+22,4.08539e+11,0.591924,3.702e+30,0.03468,9.77257e-05,1.65156e-11,2.31357e-62,2.06205e+15,8.63768e+15,4.30251e+11,1.07002e+16
7.15e+06,97859.4,6.42654e+06,1.50164e+26,1.45412e+22,4.14333e+11,0.592008,3.69935e+30,0.03468,9.7725e-05,1.65152e-11,2.31345e-62,2.06153e+15,8.63575e+15,4.30129e+11,1.06977e+16
7.25e+06,97844.2,6.42607e+06,1.56539e+26,1.51544e+22,4.20126e+11,0.592094,3.69666e+30,0.03468,9.77233e-05,1.65141e-11,2.31312e-62,2.06099e+15,8.63379e+15,4.30005e+11,1.06952e+16
7.35e+06,97828.8,6.4256e+06,1.63091e+26,1.57845e+22,4.25919e+11,0.59218,3.69393e+30,0.03468,9.77206e-05,1.65126e-11,2.31265e-62,2.06045e+15,8.6318e+15,4.29879e+11,1.06927e+16
7.45e+06,97813.2,6.42513e+06,1.69822e+26,1.64315e+22,4.31712e+11,0.592268,3.69117e+30,0.03468,9.77215e-05,1.65131e-11,2.3128e-62,2.05991e+15,8.62978e+15,4.29751e+11,1.06901e+16
7.55e+06,97797.4,6.42464e+06,1.76736e+26,1.70957e+22,4.37506e+11,0.592357,3.68837e+30,0.03468,9.77207e-05,1.65126e-11,2.31265e-62,2.05935e+15,8.62774e+15,4.29622e+11,1.06875e+16
7.65e+06,97781.4,6.42415e+06,1.83834e+26,1.77773e+22,4.43299e+11,0.592447,3.68554e+30,0.03468,9.77196e-05,1.65118e-11,2.31242e-62,2.05879e+15,8.62567e+15,4.29491e+11,1.06849e+16
7.75e+06,97765.2,6.42366e+06,1.91119e+26,1.84765e+22,4.49092e+11,0.592539,3.68268e+30,0.03468,9.77188e-05,1.65114e-11,2.3123e-62,2.05822e+15,8.62357e+15,4.29358e+11,1.06822e+16
7.85e+06,97748.8,6.42315e+06,1.98593e+26,1.91935e+22,4.54885e+11,0.592631,3.67977e+30,0.03468,9.7717e-05,1.65102e-11,2.31193e-62,2.05765e+15,8.62145e+15,4.29224e+11,1.06795e+16
7.95e+06,97732.2,6.42265e+06,2.06258e+26,1.99286e+22,4.60678e+11,0.592725,3.67684e+30,0.03468,9.77139e-05,1.65085e-11,2.31141e-62,2.05706e+15,8.6193e+15,4.29088e+11,1.06768e+16
8.05e+06,97715.3,6.42213e+06,2.14118e+26,2.06819e+22,4.6647e+11,0.59282,3.67387e+30,0.03468,9.77149e-05,1.65091e-11,2.31158e-62,2.05647e+15,8.61712e+15,4.2895e+11,1.0674e+16
8.15e+06,97698.3,6.42161e+06,2.22174e+26,2.14536e+22,4.72263e+11,0.592916,3.67086e+30,0.03468,9.77141e-05,1.65086e-11,2.31142e-62,2.05587e+15,8.61492e+15,4.28811e+11,1.06712e+16
8.25e+06,97681,6.42108e+06,2.30428e+26,2.2244e+22,4.78056e+11,0.593013,3.66782e+30,0.03468,9.77128e-05,1.65077e-11,2.31117e-62,2.05527e+15,8.61269e+15,4.2867e+11,1.06684e+16
8.35e+06,97663.6,6.42055e+06,2.38884e+26,2.30532e+22,4.83848e+11,0.593112,3.66475e+30,0.03468,9.7712e-05,1.65073e-11,2.31103e-62,2.05466e+15,8.61044e+15,4.28527e+11,1.06655e+16
8.45e+06,97645.9,6.42001e+06,2.47543e+26,2.38814e+22,4.89641e+11,0.593212,3.66164e+30,0.03468,9.771e-05,1.6506e-11,2.31064e-62,2.05404e+15,8.60815e+15,4.28383e+11,1.06626e+16
8.55e+06,97628.1,6.41946e+06,2.56408e+26,2.47289e+22,4.95433e+11,0.593313,3.6585e+30,0.03468,9.77066e-05,1.65042e-11,2.31007e-62,2.05341e+15,8.60585e+15,4.28237e+11,1.06597e+16
8.65e+06,97610,6.4189e+06,2.65481e+26,2.55958e+22,5.01226e+11,0.593415,3.65532e+30,0.03468,9.77077e-05,1.65047e-11,2.31025e-62,2.05278e+15,8.60351e+15,4.28089e+11,1.06567e+16
8.75e+06,97591.7,6.41834e+06,2.74764e+26,2.64823e+22,5.07018e+11,0.593519,3.65211e+30,0.03468,9.77068e-05,1.65042e-11,2.31008e-62,2.05214e+15,8.60115e+15,4.27939e+11,1.06537e+16
8.85e+06,97573.2,6.41778e+06,2.8426e+26,2.73887e+22,5.1281e+11,0.593623,3.64886e+30,0.03468,9.77055e-05,1.65033e-11,2.3098e-62,2.05149e+15,8.59876e+15,4.27788e+11,1.06507e+16
8.95e+06,97554.5,6.41721e+06,2.93972e+26,2.83152e+22,5.18603e+11,0.593729,3.64558e+30,0.03468,9.77046e-05,1.65028e-11,2.30965e-62,2.05083e+15,8.59635e+15,4.27636e+11,1.06476e+16
9.05e+06,97535.6,6.41663e+06,3.03901e+26,2.92618e+22,5.24395e+11,0.593836,3.64227e+30,0.03468,9.77024e-05,1.65014e-11,2.30923e-62,2.05017e+15,8.59391e+15,4.27481e+11,1.06445e+16
9.15e+06,97516.5,6.41604e+06,3.1405e+26,3.02289e+22,5.30187e+11,0.593944,3.63893e+30,0.03468,9.76988e-05,1.64994e-11,2.30861e-62,2.0495e+15,8.59144e+15,4.27325e+11,1.06414e+16
9.25e+06,97497.2,6.41545e+06,3.24421e+26,3.12166e+22,5.35979e+11,0.594054,3.63555e+30,0.03468,9.77e-05,1.65e-11,2.30881e-62,2.04883e+15,8.58894e+15,4.27168e+11,1.06382e+16
9.35e+06,97477.7,6.41485e+06,3.35017e+26,3.22251e+22,5.4177e+11,0.594164,3.63213e+30,0.03468,9.7699e-05,1.64994e-11,2.30862e-62,2.04814e+15,8.58642e+15,4.27008e+11,1.0635e+16
9.45e+06,97458,6.41425e+06,3.45839e+26,3.32547e+22,5.47562e+11,0.594276,3.62869e+30,0.03468,9.76975e-05,1.64985e-11,2.30833e-62,2.04745e+15,8.58388e+15,4.26847e+11,1.06318e+16
9.55e+06,97438,6.41364e+06,3.56891e+26,3.43054e+22,5.53354e+11,0.594389,3.6252e+30,0.03468,9.76966e-05,1.64979e-11,2.30817e-62,2.04676e+15,8.58131e+15,4.26685e+11,1.06285e+16
9.65e+06,97417.9,6.41302e+06,3.68175e+26,3.53775e+22,5.59146e+11,0.594504,3.62169e+30,0.03468,9.76942e-05,1.64964e-11,2.3077e-62,2.04605e+15,8.57871e+15,4.26521e+11,1.06252e+16
9.75e+06,97397.6,6.41239e+06,3.79692e+26,3.64712e+22,5.64937e+11,0.594619,3.61814e+30,0.03468,9.76903e-05,1.64943e-11,2.30705e-62,2.04534e+15,8.57608e+15,4.26355e+11,1.06218e+16
9.85e+06,97377,6.41176e+06,3.91445e+26,3.75866e+22,5.70728e+11,0.594736,3.61457e+30,0.03468,9.76916e-05,1.6495e-11,2.30725e-62,2.04462e+15,8.57343e+15,4.26187e+11,1.06185e+16
9.95e+06,97356.3,6.41113e+06,4.03438e+26,3.8724e+22,5.7652e+11,0.594854,3.61095e+30,0.03468,9.76905e-05,1.64943e-11,2.30706e-62,2.04389e+15,8.57075e+15,4.26018e+11,1.06151e+16
1.005e+07,97335.3,6.41048e+06,4.15671e+26,3.98835e+22,5.82311e+11,0.594973,3.60731e+30,0.03468,9.7689e-05,1.64933e-11,2.30674e-62,2.04316e+15,8.56805e+15,4.25847e+11,1.06116e+16
1.015e+07,97314.2,6.40984e+06,4.28147e+26,4.10653e+22,5.88102e+11,0.595093,3.60363e+30,0.03468,9.76879e-05,1.64927e-11,2.30657e-62,2.04242e+15,8.56532e+15,4.25675e+11,1.06082e+16
1.025e+07,97292.8,6.40918e+06,4.40868e+26,4.22697e+22,5.93893e+11,0.595215,3.59992e+30,0.03468,9.76854e-05,1.64911e-11,2.30607e-62,2.04167e+15,8.56256e+15,4.25501e+11,1.06047e+16
1.035e+07,97271.3,6.40852e+06,4.53838e+26,4.34967e+22,5.99684e+11,0.595338,3.59618e+30,0.03468,9.76812e-05,1.64888e-11,2.30537e-62,2.04092e+15,8.55978e+15,4.25325e+11,1.06011e+16
1.045e+07,97249.5,6.40785e+06,4.67057e+26,4.47466e+22,6.05475e+11,0.595462,3.5924e+30,0.03468,9.76826e-05,1.64895e-11,2.30559e-62,2.04016e+15,8.55697e+15,4.25148e+11,1.05976e+16
1.055e+07,97227.5,6.40718e+06,4.80529e+26,4.60195e+22,6.11266e+11,0.595587,3.5886e+30,0.03468,9.76815e-05,1.64888e-11,2.30538e-62,2.03939e+15,8.55414e+15,4.24969e+11,1.0594e+16
1.065e+07,97205.3,6.4065e+06,4.94256e+26,4.73157e+22,6.17057e+11,0.595713,3.58476e+30,0.03468,9.76798e-05,1.64877e-11,2.30504e-62,2.03861e+15,8.55128e+15,4.24788e+11,1.05903e+16
1.075e+07,97183,6.40581e+06,5.0824e+26,4.86352e+22,6.22847e+11,0.595841,3.58089e+30,0.03468,9.76787e-05,1.64871e-11,2.30486e-62,2.03783e+15,8.5484e+15,4.24606e+11,1.05867e+16
1.085e+07,97160.4,6.40511e+06,5.22483e+26,4.99784e+22,6.28638e+11,0.59597,3.57698e+30,0.03468,9.7676e-05,1.64854e-11,2.30433e-62,2.03704e+15,8.54548e+15,4.24422e+11,1.0583e+16
1.095e+07,97137.6,6.40441e+06,5.36987e+26,5.13453e+22,6.34429e+11,0.5961,3.57305e+30,0.03468,9.76716e-05,1.6483e-11,2.30358e-62,2.03625e+15,8.54255e+15,4.24236e+11,1.05792e+16
