X = 0.734
Y = 0.25
Z = 0.016
mu = 0.601142
Radius,Density,Temp,Mass,Lum,OptD,Kff,KH,Kes,PP,CNO,3a,Deg,Gas,Rad,TotPres
0,0,0,0,0,0,-nan,0,0.03468,0.0325218,0.00332815,3.16418e-44,0,0,0,0
1,1.14945e+06,1.48843e+07,4.81479e+06,172610,201888,0.17564,2.4312e+34,0.03468,0.0325218,0.00332815,3.16418e-44,1.25122e+17,2.34929e+17,1.23765e+13,3.60063e+17
100026,1.14944e+06,1.48842e+07,4.81857e+21,1.72744e+20,2.01941e+10,0.17564,2.43115e+34,0.03468,0.0325218,0.00332815,3.16418e-44,1.25121e+17,2.34928e+17,1.23764e+13,3.60061e+17
200036,1.14943e+06,1.48841e+07,3.85387e+22,1.38156e+21,4.03849e+10,0.175643,2.431e+34,0.03468,0.0325218,0.00332815,3.16418e-44,1.25118e+17,2.34923e+17,1.23761e+13,3.60054e+17
300075,1.1494e+06,1.4884e+07,1.30094e+23,4.66346e+21,6.05816e+10,0.175646,2.43075e+34,0.03468,0.0325218,0.00332815,3.16418e-44,1.25114e+17,2.34916e+17,1.23756e+13,3.60043e+17
400340,1.14937e+06,1.48838e+07,3.08921e+23,1.10732e+22,8.08241e+10,0.175652,2.4304e+34,0.03468,0.0325218,0.00332815,3.16418e-44,1.25108e+17,2.34906e+17,1.23749e+13,3.60027e+17
500509,1.14933e+06,1.48835e+07,6.03651e+23,2.16359e+22,1.01047e+11,0.175659,2.42995e+34,0.03468,0.0325218,0.00332815,3.16418e-44,1.25101e+17,2.34893e+17,1.2374e+13,3.60006e+17
600559,1.14928e+06,1.48832e+07,1.04281e+24,3.73724e+22,1.21246e+11,0.175667,2.4294e+34,0.03468,0.0325218,0.00332815,3.16418e-44,1.25091e+17,2.34877e+17,1.23729e+13,3.59981e+17
700971,1.14922e+06,1.48828e+07,1.65816e+24,5.9418e+22,1.41519e+11,0.175677,2.42875e+34,0.03468,0.0325218,0.00332815,3.16418e-44,1.2508e+17,2.34859e+17,1.23716e+13,3.59951e+17
801241,1.14915e+06,1.48823e+07,2.47628e+24,8.87221e+22,1.61762e+11,0.175689,2.428e+34,0.03468,0.0325218,0.00332815,3.16418e-44,1.25068e+17,2.34837e+17,1.237e+13,3.59917e+17
901604,1.14907e+06,1.48818e+07,3.52809e+24,1.26387e+23,1.82025e+11,0.175702,2.42715e+34,0.03468,0.0325218,0.00332815,3.16418e-44,1.25053e+17,2.34812e+17,1.23683e+13,3.59878e+17
1.00174e+06,1.14898e+06,1.48812e+07,4.8388e+24,1.73311e+23,2.02242e+11,0.175716,2.4262e+34,0.03468,0.0325218,0.00332815,3.16418e-44,1.25037e+17,2.34785e+17,1.23664e+13,3.59834e+17
1.10225e+06,1.14888e+06,1.48806e+07,6.44594e+24,2.30829e+23,2.22533e+11,0.175732,2.42515e+34,0.03468,0.0325218,0.00332815,3.16418e-44,1.25019e+17,2.34755e+17,1.23642e+13,3.59786e+17
1.20292e+06,1.14877e+06,1.48798e+07,8.37783e+24,2.99946e+23,2.42858e+11,0.17575,2.424e+34,0.03468,0.0325218,0.00332815,3.16418e-44,1.24999e+17,2.34721e+17,1.23619e+13,3.59733e+17
1.30302e+06,1.14866e+06,1.48791e+07,1.06475e+25,3.81117e+23,2.63068e+11,0.175769,2.42276e+34,0.03468,0.0325218,0.00332815,3.16418e-44,1.24978e+17,2.34686e+17,1.23593e+13,3.59676e+17
1.40304e+06,1.14853e+06,1.48783e+07,1.32916e+25,4.75643e+23,2.83262e+11,0.17579,2.42141e+34,0.03468,0.0325218,0.00332815,3.16418e-44,1.24955e+17,2.34647e+17,1.23566e+13,3.59614e+17
1.50399e+06,1.14839e+06,1.48774e+07,1.63708e+25,5.85676e+23,3.03644e+11,0.175812,2.41996e+34,0.03468,0.0325218,0.00332815,3.16418e-44,1.24931e+17,2.34605e+17,1.23536e+13,3.59548e+17
1.60499e+06,1.14825e+06,1.48764e+07,1.98941e+25,7.11519e+23,3.24037e+11,0.175836,2.4184e+34,0.03468,0.0325218,0.00332815,3.16418e-44,1.24904e+17,2.3456e+17,1.23504e+13,3.59476e+17
1.70513e+06,1.14809e+06,1.48754e+07,2.38528e+25,8.52846e+23,3.44255e+11,0.175861,2.41676e+34,0.03468,0.0325218,0.00332815,3.16418e-44,1.24876e+17,2.34512e+17,1.23471e+13,3.59401e+17
1.80611e+06,1.14793e+06,1.48743e+07,2.83442e+25,1.0131e+24,3.64643e+11,0.175888,2.415e+34,0.03468,0.0325218,0.00332815,3.16418e-44,1.24846e+17,2.34461e+17,1.23435e+13,3.5932e+17
1.90737e+06,1.14775e+06,1.48732e+07,3.33807e+25,1.19271e+24,3.85088e+11,0.175917,2.41314e+34,0.03468,0.0325218,0.00332815,3.16418e-44,1.24814e+17,2.34408e+17,1.23397e+13,3.59234e+17
2.0083e+06,1.14757e+06,1.4872e+07,3.89615e+25,1.39161e+24,4.05467e+11,0.175947,2.41119e+34,0.03468,0.0325218,0.00332815,3.16418e-44,1.24781e+17,2.34351e+17,1.23357e+13,3.59144e+17
2.10984e+06,1.14737e+06,1.48707e+07,4.51706e+25,1.61277e+24,4.2597e+11,0.175979,2.40912e+34,0.03468,0.0325218,0.00332815,3.16418e-44,1.24746e+17,2.34291e+17,1.23314e+13,3.59049e+17
2.20991e+06,1.14717e+06,1.48694e+07,5.1902e+25,1.85238e+24,4.46175e+11,0.176012,2.40699e+34,0.03468,0.0325218,0.00332815,3.16418e-44,1.24709e+17,2.34229e+17,1.23271e+13,3.58951e+17
2.31127e+06,1.14696e+06,1.4868e+07,5.93699e+25,2.11802e+24,4.66643e+11,0.176047,2.40473e+34,0.03468,0.0325218,0.00332815,3.16418e-44,1.24671e+17,2.34164e+17,1.23224e+13,3.58847e+17
2.41188e+06,1.14674e+06,1.48665e+07,6.74574e+25,2.40549e+24,4.86957e+11,0.176084,2.40239e+34,0.03468,0.0325218,0.00332815,3.16418e-44,1.24631e+17,2.34096e+17,1.23176e+13,3.58739e+17
2.51311e+06,1.14651e+06,1.4865e+07,7.63039e+25,2.71972e+24,5.07399e+11,0.176122,2.39994e+34,0.03468,0.0325218,0.00332815,3.16418e-44,1.24589e+17,2.34024e+17,1.23126e+13,3.58625e+17
2.61469e+06,1.14626e+06,1.48634e+07,8.59246e+25,3.06117e+24,5.2791e+11,0.176161,2.39738e+34,0.03468,0.0325218,0.00332815,3.16418e-44,1.24545e+17,2.3395e+17,1.23073e+13,3.58507e+17
2.71632e+06,1.14601e+06,1.48618e+07,9.63258e+25,3.43003e+24,5.48432e+11,0.176203,2.39472e+34,0.03468,0.0325218,0.00332815,3.16418e-44,1.24499e+17,2.33873e+17,1.23018e+13,3.58384e+17
2.8177e+06,1.14575e+06,1.486e+07,1.07503e+26,3.82609e+24,5.68903e+11,0.176246,2.39197e+34,0.03468,0.0325218,0.00332815,3.16418e-44,1.24452e+17,2.33792e+17,1.22962e+13,3.58257e+17
2.9185e+06,1.14548e+06,1.48583e+07,1.19441e+26,4.24872e+24,5.89257e+11,0.17629,2.38914e+34,0.03468,0.0325218,0.00332815,3.16418e-44,1.24403e+17,2.3371e+17,1.22904e+13,3.58125e+17
3.02065e+06,1.1452e+06,1.48564e+07,1.32408e+26,4.70737e+24,6.09886e+11,0.176336,2.38617e+34,0.03468,0.0325218,0.00332815,3.16418e-44,1.24352e+17,2.33623e+17,1.22842e+13,3.57988e+17
3.12172e+06,1.14491e+06,1.48545e+07,1.46126e+26,5.19214e+24,6.30296e+11,0.176384,2.38314e+34,0.03468,0.0325218,0.00332815,3.16418e-44,1.243e+17,2.33535e+17,1.2278e+13,3.57847e+17
3.22376e+06,1.14461e+06,1.48526e+07,1.60905e+26,5.71387e+24,6.50904e+11,0.176433,2.37998e+34,0.03468,0.0325218,0.00332815,3.16418e-44,1.24246e+17,2.33442e+17,1.22715e+13,3.577e+17
3.32418e+06,1.1443e+06,1.48506e+07,1.76386e+26,6.25987e+24,6.71183e+11,0.176484,2.37677e+34,0.03468,0.0325218,0.00332815,3.16418e-44,1.2419e+17,2.33349e+17,1.22648e+13,3.57551e+17
3.42517e+06,1.14399e+06,1.48485e+07,1.92923e+26,6.84254e+24,6.91579e+11,0.176536,2.37346e+34,0.03468,0.0325218,0.00332815,3.16418e-44,1.24133e+17,2.33251e+17,1.2258e+13,3.57397e+17
3.5266e+06,1.14366e+06,1.48463e+07,2.10539e+26,7.46255e+24,7.12064e+11,0.17659,2.37003e+34,0.03468,0.0325218,0.00332815,3.16418e-44,1.24074e+17,2.33151e+17,1.22509e+13,3.57237e+17
3.62834e+06,1.14332e+06,1.48441e+07,2.2925e+26,8.12036e+24,7.32609e+11,0.176646,2.3665e+34,0.03468,0.0325218,0.00332815,3.16418e-44,1.24013e+17,2.33047e+17,1.22436e+13,3.57073e+17
3.73022e+06,1.14298e+06,1.48418e+07,2.49064e+26,8.8162e+24,7.53187e+11,0.176703,2.36287e+34,0.03468,0.0325218,0.00332815,3.16418e-44,1.2395e+17,2.32941e+17,1.22361e+13,3.56903e+17
3.83211e+06,1.14262e+06,1.48395e+07,2.69985e+26,9.55008e+24,7.73766e+11,0.176762,2.35914e+34,0.03468,0.0325218,0.00332815,3.16418e-44,1.23885e+17,2.32831e+17,1.22283e+13,3.56729e+17
3.93385e+06,1.14225e+06,1.48371e+07,2.92009e+26,1.03217e+25,7.94315e+11,0.176823,2.35532e+34,0.03468,0.0325218,0.00332815,3.16418e-44,1.23819e+17,2.32719e+17,1.22204e+13,3.5655e+17
4.03529e+06,1.14188e+06,1.48346e+07,3.15123e+26,1.11306e+25,8.14802e+11,0.176885,2.35143e+34,0.03468,0.0325218,0.00332815,3.16418e-44,1.23752e+17,2.32604e+17,1.22123e+13,3.56368e+17
4.13625e+06,1.1415e+06,1.48321e+07,3.39305e+26,1.19757e+25,8.35195e+11,0.176948,2.34745e+34,0.03468,0.0325218,0.00332815,3.16418e-44,1.23683e+17,2.32487e+17,1.2204e+13,3.56182e+17
4.23658e+06,1.14111e+06,1.48296e+07,3.64525e+26,1.28561e+25,8.55461e+11,0.177013,2.34342e+34,0.03468,0.0325218,0.00332815,3.16418e-44,1.23612e+17,2.32367e+17,1.21956e+13,3.55992e+17
4.33936e+06,1.1407e+06,1.48269e+07,3.9162e+26,1.38006e+25,8.76222e+11,0.17708,2.33919e+34,0.03468,0.0325218,0.00332815,3.16418e-44,1.23539e+17,2.32242e+17,1.21868e+13,3.55793e+17
4.44132e+06,1.14028e+06,1.48242e+07,4.19787e+26,1.47813e+25,8.96817e+11,0.177149,2.33491e+34,0.03468,0.0325218,0.00332815,3.16418e-44,1.23464e+17,2.32115e+17,1.21779e+13,3.55592e+17
4.54229e+06,1.13986e+06,1.48214e+07,4.48973e+26,1.5796e+25,9.17212e+11,0.177219,2.33057e+34,0.03468,0.0325218,0.00332815,3.16418e-44,1.23388e+17,2.31987e+17,1.21688e+13,3.55387e+17
4.64556e+06,1.13943e+06,1.48185e+07,4.80189e+26,1.68797e+25,9.38075e+11,0.177292,2.32605e+34,0.03468,0.0325218,0.00332815,3.16418e-44,1.23309e+17,2.31852e+17,1.21593e+13,3.55174e+17
4.74764e+06,1.13898e+06,1.48156e+07,5.12425e+26,1.79973e+25,9.58697e+11,0.177366,2.32148e+34,0.03468,0.0325218,0.00332815,3.16418e-44,1.23229e+17,2.31717e+17,1.21498e+13,3.54958e+17
4.84835e+06,1.13854e+06,1.48127e+07,5.45601e+26,1.91458e+25,9.79041e+11,0.17744,2.31689e+34,0.03468,0.0325218,0.00332815,3.16418e-44,1.23149e+17,2.3158e+17,1.21402e+13,3.54741e+17
4.95121e+06,1.13807e+06,1.48096e+07,5.80925e+26,2.03668e+25,9.99821e+11,0.177518,2.31211e+34,0.03468,0.0325218,0.00332815,3.16418e-44,1.23065e+17,2.31438e+17,1.21301e+13,3.54514e+17
5.05247e+06,1.1376e+06,1.48065e+07,6.17152e+26,2.16171e+25,1.02028e+12,0.177596,2.30732e+34,0.03468,0.0325218,0.00332815,3.16418e-44,1.22981e+17,2.31294e+17,1.21201e+13,3.54287e+17
5.15583e+06,1.13712e+06,1.48033e+07,6.55639e+26,2.29434e+25,1.04116e+12,0.177677,2.30234e+34,0.03468,0.0325218,0.00332815,3.16418e-44,1.22893e+17,2.31145e+17,1.21096e+13,3.5405e+17
5.25737e+06,1.13663e+06,1.48001e+07,6.94966e+26,2.42965e+25,1.06168e+12,0.177758,2.29736e+34,0.03468,0.0325218,0.00332815,3.16418e-44,1.22805e+17,2.30996e+17,1.20991e+13,3.53813e+17
5.36093e+06,1.13612e+06,1.47968e+07,7.36653e+26,2.57284e+25,1.0826e+12,0.177843,2.29219e+34,0.03468,0.0325218,0.00332815,3.16418e-44,1.22714e+17,2.30841e+17,1.20882e+13,3.53567e+17
5.46246e+06,1.13562e+06,1.47935e+07,7.79092e+26,2.71837e+25,1.10312e+12,0.177928,2.28703e+34,0.03468,0.0325218,0.00332815,3.16418e-44,1.22623e+17,2.30686e+17,1.20773e+13,3.53321e+17
5.56592e+06,1.13509e+06,1.479e+07,8.23977e+26,2.87204e+25,1.12402e+12,0.178016,2.2817e+34,0.03468,0.0325218,0.00332815,3.16418e-44,1.22528e+17,2.30526e+17,1.2066e+13,3.53066e+17
5.6671e+06,1.13457e+06,1.47866e+07,8.69497e+26,3.02761e+25,1.14447e+12,0.178104,2.27639e+34,0.03468,0.0325218,0.00332815,3.16418e-44,1.22434e+17,2.30366e+17,1.20547e+13,3.52812e+17
5.77015e+06,1.13402e+06,1.4783e+07,9.17531e+26,3.19149e+25,1.16529e+12,0.178195,2.2709e+34,0.03468,0.0325218,0.00332815,3.16418e-44,1.22336e+17,2.302e+17,1.20431e+13,3.52548e+17
5.87067e+06,1.13349e+06,1.47794e+07,9.66053e+26,3.35674e+25,1.1856e+12,0.178285,2.26547e+34,0.03468,0.0325218,0.00332815,3.16418e-44,1.2224e+17,2.30035e+17,1.20315e+13,3.52287e+17
5.97297e+06,1.13293e+06,1.47758e+07,1.01714e+27,3.53042e+25,1.20628e+12,0.178379,2.25985e+34,0.03468,0.0325218,0.00332815,3.16418e-44,1.2214e+17,2.29865e+17,1.20196e+13,3.52017e+17
6.07708e+06,1.13235e+06,1.4772e+07,1.07093e+27,3.71295e+25,1.22732e+12,0.178476,2.25405e+34,0.03468,0.0325218,0.00332815,3.16418e-44,1.22036e+17,2.29689e+17,1.20072e+13,3.51737e+17
6.17837e+06,1.13178e+06,1.47682e+07,1.12504e+27,3.89622e+25,1.24779e+12,0.178572,2.24833e+34,0.03468,0.0325218,0.00332815,3.16418e-44,1.21934e+17,2.29515e+17,1.1995e+13,3.51461e+17
6.28138e+06,1.13119e+06,1.47643e+07,1.18188e+27,4.0884e+25,1.26861e+12,0.178671,2.24243e+34,0.03468,0.0325218,0.00332815,3.16418e-44,1.21828e+17,2.29335e+17,1.19824e+13,3.51175e+17
6.38612e+06,1.13059e+06,1.47603e+07,1.2416e+27,4.28988e+25,1.28978e+12,0.178774,2.23634e+34,0.03468,0.0325218,0.00332815,3.16418e-44,1.21719e+17,2.2915e+17,1.19694e+13,3.5088e+17
6.48776e+06,1.12999e+06,1.47563e+07,1.30142e+27,4.4913e+25,1.31032e+12,0.178876,2.23036e+34,0.03468,0.0325218,0.00332815,3.16418e-44,1.21611e+17,2.28967e+17,1.19565e+13,3.5059e+17
6.59103e+06,1.12937e+06,1.47523e+07,1.36411e+27,4.70201e+25,1.33119e+12,0.178981,2.2242e+34,0.03468,0.0325218,0.00332815,3.16418e-44,1.215e+17,2.28778e+17,1.19433e+13,3.5029e+17
6.69597e+06,1.12873e+06,1.4748e+07,1.42983e+27,4.92242e+25,1.35241e+12,0.179089,2.21786e+34,0.03468,0.0325218,0.00332815,3.16418e-44,1.21386e+17,2.28583e+17,1.19296e+13,3.49981e+17
6.79749e+06,1.1281e+06,1.47439e+07,1.49536e+27,5.14174e+25,1.37293e+12,0.179195,2.21164e+34,0.03468,0.0325218,0.00332815,3.16418e-44,1.21273e+17,2.28392e+17,1.19163e+13,3.49677e+17
6.90058e+06,1.12746e+06,1.47396e+07,1.56389e+27,5.37064e+25,1.39377e+12,0.179305,2.20526e+34,0.03468,0.0325218,0.00332815,3.16418e-44,1.21158e+17,2.28195e+17,1.19025e+13,3.49365e+17
7.00525e+06,1.12679e+06,1.47352e+07,1.63556e+27,5.60952e+25,1.41493e+12,0.179418,2.1987e+34,0.03468,0.0325218,0.00332815,3.16418e-44,1.21038e+17,2.27992e+17,1.18883e+13,3.49043e+17
7.10618e+06,1.12614e+06,1.47309e+07,1.70669e+27,5.84608e+25,1.43533e+12,0.179529,2.19229e+34,0.03468,0.0325218,0.00332815,3.16418e-44,1.20922e+17,2.27794e+17,1.18744e+13,3.48728e+17
7.20859e+06,1.12547e+06,1.47265e+07,1.78091e+27,6.0924e+25,1.45604e+12,0.179643,2.18572e+34,0.03468,0.0325218,0.00332815,3.16418e-44,1.20802e+17,2.2759e+17,1.18601e+13,3.48404e+17
7.3125e+06,1.12478e+06,1.4722e+07,1.85836e+27,6.34887e+25,1.47705e+12,0.179761,2.17898e+34,0.03468,0.0325218,0.00332815,3.16418e-44,1.20679e+17,2.27381e+17,1.18455e+13,3.48072e+17
7.41794e+06,1.12407e+06,1.47173e+07,1.93918e+27,6.61588e+25,1.49837e+12,0.179882,2.17206e+34,0.03468,0.0325218,0.00332815,3.16418e-44,1.20552e+17,2.27165e+17,1.18304e+13,3.4773e+17
7.51925e+06,1.12338e+06,1.47127e+07,2.01898e+27,6.87894e+25,1.51885e+12,0.18,2.16534e+34,0.03468,0.0325218,0.00332815,3.16418e-44,1.20429e+17,2.26956e+17,1.18157e+13,3.47397e+17
7.62198e+06,1.12267e+06,1.4708e+07,2.10207e+27,7.15221e+25,1.53963e+12,0.180121,2.15846e+34,0.03468,0.0325218,0.00332815,3.16418e-44,1.20303e+17,2.2674e+17,1.18007e+13,3.47055e+17
7.72613e+06,1.12195e+06,1.47032e+07,2.18858e+27,7.43606e+25,1.56069e+12,0.180246,2.15141e+34,0.03468,0.0325218,0.00332815,3.16418e-44,1.20173e+17,2.26519e+17,1.17852e+13,3.46703e+17
7.83174e+06,1.1212e+06,1.46982e+07,2.27865e+27,7.73088e+25,1.58205e+12,0.180374,2.14418e+34,0.03468,0.0325218,0.00332815,3.16418e-44,1.20039e+17,2.26292e+17,1.17693e+13,3.46343e+17
7.93283e+06,1.12048e+06,1.46934e+07,2.36711e+27,8.01977e+25,1.60249e+12,0.180499,2.1372e+34,0.03468,0.0325218,0.00332815,3.16418e-44,1.1991e+17,2.26072e+17,1.1754e+13,3.45994e+17
8.03525e+06,1.11973e+06,1.46885e+07,2.45901e+27,8.31916e+25,1.62321e+12,0.180627,2.13005e+34,0.03468,0.0325218,0.00332815,3.16418e-44,1.19778e+17,2.25846e+17,1.17382e+13,3.45635e+17
8.13903e+06,1.11897e+06,1.46835e+07,2.55448e+27,8.62941e+25,1.64419e+12,0.180758,2.12275e+34,0.03468,0.0325218,0.00332815,3.16418e-44,1.19642e+17,2.25615e+17,1.17221e+13,3.45268e+17
8.24417e+06,1.11819e+06,1.46783e+07,2.65366e+27,8.9509e+25,1.66546e+12,0.180893,2.11527e+34,0.03468,0.0325218,0.00332815,3.16418e-44,1.19502e+17,2.25378e+17,1.17056e+13,3.44892e+17
8.3444e+06,1.11744e+06,1.46733e+07,2.75051e+27,9.2641e+25,1.68574e+12,0.181024,2.10809e+34,0.03468,0.0325218,0.00332815,3.16418e-44,1.19368e+17,2.25149e+17,1.16896e+13,3.44529e+17
8.44587e+06,1.11666e+06,1.46682e+07,2.8509e+27,9.58792e+25,1.70626e+12,0.181157,2.10075e+34,0.03468,0.0325218,0.00332815,3.16418e-44,1.19231e+17,2.24915e+17,1.16733e+13,3.44158e+17
8.5486e+06,1.11587e+06,1.46629e+07,2.95496e+27,9.92271e+25,1.72704e+12,0.181294,2.09325e+34,0.03468,0.0325218,0.00332815,3.16418e-44,1.1909e+17,2.24676e+17,1.16566e+13,3.43777e+17
8.65262e+06,1.11506e+06,1.46575e+07,3.06281e+27,1.02688e+26,1.74809e+12,0.181435,2.0856e+34,0.03468,0.0325218,0.00332815,3.16418e-44,1.18946e+17,2.2443e+17,1.16395e+13,3.43388e+17
8.75793e+06,1.11423e+06,1.4652e+07,3.1746e+27,1.06266e+26,1.76939e+12,0.181579,2.07779e+34,0.03468,0.0325218,0.00332815,3.16418e-44,1.18799e+17,2.24179e+17,1.1622e+13,3.4299e+17
8.86456e+06,1.11339e+06,1.46464e+07,3.29047e+27,1.09965e+26,1.79097e+12,0.181727,2.06981e+34,0.03468,0.0325218,0.00332815,3.16418e-44,1.18648e+17,2.23922e+17,1.16042e+13,3.42582e+17
8.96573e+06,1.11257e+06,1.4641e+07,3.40293e+27,1.13545e+26,1.81144e+12,0.181869,2.06219e+34,0.03468,0.0325218,0.00332815,3.16418e-44,1.18504e+17,2.23676e+17,1.1587e+13,3.42191e+17
9.06809e+06,1.11174e+06,1.46355e+07,3.51924e+27,1.17237e+26,1.83215e+12,0.182015,2.05441e+34,0.03468,0.0325218,0.00332815,3.16418e-44,1.18356e+17,2.23424e+17,1.15695e+13,3.41791e+17
9.17165e+06,1.11089e+06,1.46298e+07,3.63953e+27,1.21046e+26,1.85311e+12,0.182164,2.04648e+34,0.03468,0.0325218,0.00332815,3.16418e-44,1.18205e+17,2.23167e+17,1.15516e+13,3.41383e+17
9.27642e+06,1.11002e+06,1.4624e+07,3.76392e+27,1.24973e+26,1.87431e+12,0.182316,2.0384e+34,0.03468,0.0325218,0.00332815,3.16418e-44,1.18051e+17,2.22903e+17,1.15333e+13,3.40966e+17
9.38242e+06,1.10913e+06,1.46181e+07,3.89257e+27,1.29024e+26,1.89576e+12,0.182473,2.03017e+34,0.03468,0.0325218,0.00332815,3.16418e-44,1.17893e+17,2.22634e+17,1.15147e+13,3.40539e+17
9.48249e+06,1.10828e+06,1.46124e+07,4.01661e+27,1.32918e+26,1.91601e+12,0.182622,2.02234e+34,0.03468,0.0325218,0.00332815,3.16418e-44,1.17743e+17,2.22378e+17,1.14969e+13,3.40132e+17
9.58365e+06,1.10741e+06,1.46066e+07,4.1446e+27,1.36925e+26,1.93649e+12,0.182774,2.01438e+34,0.03468,0.0325218,0.00332815,3.16418e-44,1.17589e+17,2.22117e+17,1.14787e+13,3.39717e+17
9.68592e+06,1.10653e+06,1.46008e+07,4.27666e+27,1.41048e+26,1.95719e+12,0.182931,2.00627e+34,0.03468,0.0325218,0.00332815,3.16418e-44,1.17433e+17,2.2185e+17,1.14602e+13,3.39294e+17
9.78932e+06,1.10563e+06,1.45947e+07,4.41294e+27,1.4529e+26,1.97812e+12,0.18309,1.99802e+34,0.03468,0.0325218,0.00332815,3.16418e-44,1.17273e+17,2.21577e+17,1.14413e+13,3.38862e+17
9.89385e+06,1.1047e+06,1.45886e+07,4.55355e+27,1.49654e+26,1.99928e+12,0.183253,1.98962e+34,0.03468,0.0325218,0.00332815,3.16418e-44,1.1711e+17,2.21299e+17,1.1422e+13,3.38421e+17
9.99954e+06,1.10376e+06,1.45823e+07,4.69865e+27,1.54144e+26,2.02068e+12,0.18342,1.98108e+34,0.03468,0.0325218,0.00332815,3.16418e-44,1.16944e+17,2.21015e+17,1.14024e+13,3.3797e+17
1.01064e+07,1.1028e+06,1.45759e+07,4.84837e+27,1.58763e+26,2.04231e+12,0.183591,1.97239e+34,0.03468,0.0325218,0.00332815,3.16418e-44,1.16774e+17,2.20726e+17,1.13823e+13,3.37511e+17
1.02067e+07,1.10189e+06,1.45698e+07,4.99167e+27,1.6317e+26,2.06262e+12,0.183753,1.96419e+34,0.03468,0.0325218,0.00332815,3.16418e-44,1.16614e+17,2.20451e+17,1.13633e+13,3.37076e+17
1.0308e+07,1.10096e+06,1.45636e+07,5.1392e+27,1.67694e+26,2.08313e+12,0.183919,1.95585e+34,0.03468,0.0325218,0.00332815,3.16418e-44,1.1645e+17,2.20172e+17,1.1344e+13,3.36633e+17
1.04103e+07,1.10002e+06,1.45573e+07,5.29109e+27,1.72337e+26,2.10385e+12,0.184087,1.94739e+34,0.03468,0.0325218,0.00332815,3.16418e-44,1.16283e+17,2.19887e+17,1.13243e+13,3.36182e+17
1.05137e+07,1.09905e+06,1.45508e+07,5.44747e+27,1.77103e+26,2.12479e+12,0.18426,1.93879e+34,0.03468,0.0325218,0.00332815,3.16418e-44,1.16113e+17,2.19597e+17,1.13042e+13,3.35722e+17
1.06182e+07,1.09807e+06,1.45443e+07,5.60848e+27,1.81994e+26,2.14595e+12,0.184436,1.93005e+34,0.03468,0.0325218,0.00332815,3.16418e-44,1.1594e+17,2.19302e+17,1.12838e+13,3.35253e+17
1.07237e+07,1.09707e+06,1.45375e+07,5.77424e+27,1.87014e+26,2.16733e+12,0.184616,1.92118e+34,0.03468,0.0325218,0.00332815,3.16418e-44,1.15764e+17,2.19e+17,1.1263e+13,3.34776e+17
1.08304e+07,1.09604e+06,1.45307e+07,5.9449e+27,1.92165e+26,2.18892e+12,0.1848,1.91217e+34,0.03468,0.0325218,0.00332815,3.16418e-44,1.15584e+17,2.18693e+17,1.12418e+13,3.34289e+17
1.09381e+07,1.095e+06,1.45237e+07,6.1206e+27,1.97451e+26,2.21075e+12,0.184988,1.90301e+34,0.03468,0.0325218,0.00332815,3.16418e-44,1.15401e+17,2.18381e+17,1.12203e+13,3.33793e+17
1.10385e+07,1.09402e+06,1.45172e+07,6.2874e+27,2.02453e+26,2.23109e+12,0.185165,1.89444e+34,0.03468,0.0325218,0.00332815,3.16418e-44,1.15229e+17,2.18087e+17,1.12e+13,3.33327e+17
1.11399e+07,1.09303e+06,1.45105e+07,6.45874e+27,2.07574e+26,2.25163e+12,0.185345,1.88575e+34,0.03468,0.0325218,0.00332815,3.16418e-44,1.15054e+17,2.17788e+17,1.11794e+13,3.32853e+17
