X = 0.734
Y = 0.25
Z = 0.016
mu = 0.601142
Radius,Density,Temp,Mass,Lum,OptD,Kff,KH,Kes,PP,CNO,3a,Deg,Gas,Rad,TotPres
0,0,0,0,0,0,-nan,0,0.03468,9.04554e-05,1.09673e-11,9.34541e-63,0,0,0,0
1,99005.3,6.30957e+06,414712,37.513,63015.1,0.636483,3.15398e+30,0.03468,9.04554e-05,1.09673e-11,9.34541e-63,2.10192e+15,8.57786e+15,3.9966e+11,1.06802e+16
30001,99005.3,6.30957e+06,1.11984e+19,1.01295e+15,1.89052e+09,0.636483,3.15398e+30,0.03468,9.04554e-05,1.09673e-11,9.34541e-63,2.10192e+15,8.57786e+15,3.9966e+11,1.06802e+16
70001,99005.2,6.30957e+06,1.42252e+20,1.28675e+16,4.41112e+09,0.636483,3.15397e+30,0.03468,9.04554e-05,1.09673e-11,9.34541e-63,2.10191e+15,8.57785e+15,3.99659e+11,1.06802e+16
150001,99005,6.30957e+06,1.39968e+21,1.26608e+17,9.45233e+09,0.636484,3.15395e+30,0.03468,9.04554e-05,1.09673e-11,9.34541e-63,2.10191e+15,8.57783e+15,3.99658e+11,1.06801e+16
250001,99004.6,6.30955e+06,6.47993e+21,5.86137e+17,1.57538e+10,0.636487,3.15388e+30,0.03468,9.04554e-05,1.09673e-11,9.34541e-63,2.10189e+15,8.57777e+15,3.99654e+11,1.06801e+16
350001,99003.9,6.30953e+06,1.77808e+22,1.60833e+18,2.20554e+10,0.636491,3.15378e+30,0.03468,9.04554e-05,1.09673e-11,9.34541e-63,2.10187e+15,8.57769e+15,3.9965e+11,1.068e+16
450001,99003,6.30951e+06,3.77904e+22,3.41821e+18,2.83569e+10,0.636496,3.15365e+30,0.03468,9.04553e-05,1.09673e-11,9.3454e-63,2.10184e+15,8.57758e+15,3.99643e+11,1.06798e+16
550001,99001.9,6.30948e+06,6.89967e+22,6.24077e+18,3.46584e+10,0.636502,3.15349e+30,0.03468,9.04553e-05,1.09673e-11,9.3454e-63,2.1018e+15,8.57744e+15,3.99635e+11,1.06796e+16
650001,99000.6,6.30944e+06,1.13888e+23,1.03009e+19,4.09599e+10,0.63651,3.15329e+30,0.03468,9.04553e-05,1.09673e-11,9.34539e-63,2.10175e+15,8.57727e+15,3.99625e+11,1.06794e+16
750001,98999.1,6.30939e+06,1.74951e+23,1.58236e+19,4.72613e+10,0.636519,3.15307e+30,0.03468,9.04553e-05,1.09673e-11,9.34539e-63,2.1017e+15,8.57707e+15,3.99613e+11,1.06792e+16
850001,98997.3,6.30934e+06,2.54674e+23,2.30335e+19,5.35628e+10,0.63653,3.1528e+30,0.03468,9.04553e-05,1.09673e-11,9.34539e-63,2.10164e+15,8.57685e+15,3.996e+11,1.06789e+16
950001,98995.4,6.30928e+06,3.55544e+23,3.21553e+19,5.98643e+10,0.636541,3.15251e+30,0.03468,9.04553e-05,1.09673e-11,9.34539e-63,2.10157e+15,8.5766e+15,3.99586e+11,1.06786e+16
1.05e+06,98993.2,6.30922e+06,4.80048e+23,4.34138e+19,6.61658e+10,0.636554,3.15219e+30,0.03468,9.04553e-05,1.09673e-11,9.34538e-63,2.10149e+15,8.57633e+15,3.99569e+11,1.06782e+16
1.15e+06,98990.8,6.30915e+06,6.30672e+23,5.70334e+19,7.24672e+10,0.636569,3.15183e+30,0.03468,9.04553e-05,1.09673e-11,9.34537e-63,2.1014e+15,8.57602e+15,3.99551e+11,1.06778e+16
1.25e+06,98988.2,6.30907e+06,8.09903e+23,7.32384e+19,7.87686e+10,0.636584,3.15144e+30,0.03468,9.04553e-05,1.09672e-11,9.34533e-63,2.10131e+15,8.57569e+15,3.99531e+11,1.06774e+16
1.35e+06,98985.3,6.30898e+06,1.02023e+24,9.22531e+19,8.50701e+10,0.636601,3.15101e+30,0.03468,9.04552e-05,1.09672e-11,9.34531e-63,2.10121e+15,8.57533e+15,3.9951e+11,1.06769e+16
1.45e+06,98982.3,6.30889e+06,1.26413e+24,1.14302e+20,9.13715e+10,0.63662,3.15056e+30,0.03468,9.04552e-05,1.09672e-11,9.34531e-63,2.1011e+15,8.57494e+15,3.99487e+11,1.06764e+16
1.55e+06,98979,6.3088e+06,1.54409e+24,1.39608e+20,9.76729e+10,0.636639,3.15007e+30,0.03468,9.04552e-05,1.09672e-11,9.34529e-63,2.10099e+15,8.57452e+15,3.99463e+11,1.06759e+16
1.65e+06,98975.5,6.30869e+06,1.86261e+24,1.68396e+20,1.03974e+11,0.63666,3.14955e+30,0.03468,9.04552e-05,1.09672e-11,9.34524e-63,2.10086e+15,8.57408e+15,3.99436e+11,1.06753e+16
1.75e+06,98971.8,6.30858e+06,2.22215e+24,2.00889e+20,1.10276e+11,0.636682,3.14899e+30,0.03468,9.04551e-05,1.09672e-11,9.34521e-63,2.10073e+15,8.57361e+15,3.99408e+11,1.06747e+16
1.85e+06,98967.9,6.30847e+06,2.62521e+24,2.37311e+20,1.16577e+11,0.636706,3.14841e+30,0.03468,9.04549e-05,1.09671e-11,9.34506e-63,2.10059e+15,8.57311e+15,3.99379e+11,1.06741e+16
1.95e+06,98963.7,6.30834e+06,3.07427e+24,2.77884e+20,1.22878e+11,0.63673,3.14779e+30,0.03468,9.04548e-05,1.0967e-11,9.34496e-63,2.10045e+15,8.57259e+15,3.99348e+11,1.06734e+16
2.05e+06,98959.4,6.30821e+06,3.57181e+24,3.22833e+20,1.2918e+11,0.636757,3.14714e+30,0.03468,9.04548e-05,1.09671e-11,9.34496e-63,2.10029e+15,8.57203e+15,3.99315e+11,1.06727e+16
2.15e+06,98954.8,6.30808e+06,4.12031e+24,3.72379e+20,1.35481e+11,0.636784,3.14646e+30,0.03468,9.04547e-05,1.0967e-11,9.34489e-63,2.10013e+15,8.57145e+15,3.99281e+11,1.0672e+16
2.25e+06,98950,6.30794e+06,4.72226e+24,4.26745e+20,1.41782e+11,0.636813,3.14574e+30,0.03468,9.04545e-05,1.09669e-11,9.34475e-63,2.09996e+15,8.57084e+15,3.99245e+11,1.06712e+16
2.35e+06,98945,6.30779e+06,5.38013e+24,4.86153e+20,1.48084e+11,0.636843,3.14499e+30,0.03468,9.04544e-05,1.09669e-11,9.34466e-63,2.09978e+15,8.57021e+15,3.99207e+11,1.06704e+16
2.45e+06,98939.8,6.30763e+06,6.0964e+24,5.50826e+20,1.54385e+11,0.636874,3.14421e+30,0.03468,9.04541e-05,1.09667e-11,9.34436e-63,2.0996e+15,8.56954e+15,3.99168e+11,1.06695e+16
2.55e+06,98934.3,6.30747e+06,6.87355e+24,6.20985e+20,1.60686e+11,0.636907,3.1434e+30,0.03468,9.04536e-05,1.09666e-11,9.34403e-63,2.09941e+15,8.56885e+15,3.99127e+11,1.06687e+16
2.65e+06,98928.7,6.3073e+06,7.71407e+24,6.96853e+20,1.66987e+11,0.636941,3.14256e+30,0.03468,9.04537e-05,1.09666e-11,9.34411e-63,2.09921e+15,8.56813e+15,3.99084e+11,1.06677e+16
2.75e+06,98922.8,6.30713e+06,8.62042e+24,7.78649e+20,1.73288e+11,0.636976,3.14168e+30,0.03468,9.04536e-05,1.09665e-11,9.34396e-63,2.099e+15,8.56739e+15,3.9904e+11,1.06668e+16
2.85e+06,98916.7,6.30694e+06,9.59509e+24,8.66595e+20,1.79589e+11,0.637013,3.14077e+30,0.03468,9.04533e-05,1.09664e-11,9.34373e-63,2.09878e+15,8.56661e+15,3.98994e+11,1.06658e+16
2.95e+06,98910.4,6.30676e+06,1.06405e+25,9.60911e+20,1.85891e+11,0.63705,3.13983e+30,0.03468,9.04531e-05,1.09663e-11,9.34359e-63,2.09856e+15,8.56581e+15,3.98946e+11,1.06648e+16
3.05e+06,98903.9,6.30656e+06,1.17593e+25,1.06182e+21,1.92192e+11,0.63709,3.13886e+30,0.03468,9.04526e-05,1.09661e-11,9.34317e-63,2.09833e+15,8.56498e+15,3.98897e+11,1.06637e+16
3.15e+06,98897.1,6.30636e+06,1.29537e+25,1.16954e+21,1.98493e+11,0.63713,3.13785e+30,0.03468,9.04519e-05,1.09658e-11,9.34261e-63,2.09809e+15,8.56413e+15,3.98847e+11,1.06626e+16
3.25e+06,98890.2,6.30616e+06,1.42264e+25,1.28428e+21,2.04794e+11,0.637172,3.13681e+30,0.03468,9.04521e-05,1.09659e-11,9.34277e-63,2.09785e+15,8.56324e+15,3.98794e+11,1.06615e+16
3.35e+06,98883,6.30594e+06,1.55797e+25,1.40628e+21,2.11095e+11,0.637215,3.13574e+30,0.03468,9.04518e-05,1.09658e-11,9.34257e-63,2.09759e+15,8.56233e+15,3.9874e+11,1.06603e+16
3.45e+06,98875.6,6.30572e+06,1.70162e+25,1.53575e+21,2.17396e+11,0.63726,3.13464e+30,0.03468,9.04515e-05,1.09656e-11,9.34225e-63,2.09733e+15,8.56139e+15,3.98685e+11,1.06591e+16
3.55e+06,98868,6.3055e+06,1.85383e+25,1.6729e+21,2.23697e+11,0.637305,3.13351e+30,0.03468,9.04512e-05,1.09655e-11,9.34206e-63,2.09706e+15,8.56043e+15,3.98627e+11,1.06579e+16
3.65e+06,98860.1,6.30526e+06,2.01486e+25,1.81796e+21,2.29998e+11,0.637352,3.13234e+30,0.03468,9.04506e-05,1.09652e-11,9.34151e-63,2.09678e+15,8.55943e+15,3.98568e+11,1.06566e+16
3.75e+06,98852.1,6.30502e+06,2.18493e+25,1.97114e+21,2.36298e+11,0.637401,3.13115e+30,0.03468,9.04495e-05,1.09648e-11,9.34074e-63,2.0965e+15,8.55841e+15,3.98508e+11,1.06553e+16
3.85e+06,98843.8,6.30478e+06,2.36431e+25,2.13266e+21,2.42599e+11,0.63745,3.12992e+30,0.03468,9.04499e-05,1.09649e-11,9.34097e-63,2.09621e+15,8.55736e+15,3.98446e+11,1.0654e+16
3.95e+06,98835.4,6.30453e+06,2.55324e+25,2.30274e+21,2.489e+11,0.637501,3.12865e+30,0.03468,9.04496e-05,1.09648e-11,9.34071e-63,2.09591e+15,8.55629e+15,3.98382e+11,1.06526e+16
4.05e+06,98826.7,6.30427e+06,2.75196e+25,2.48159e+21,2.55201e+11,0.637554,3.12736e+30,0.03468,9.04491e-05,1.09646e-11,9.34031e-63,2.0956e+15,8.55518e+15,3.98317e+11,1.06512e+16
4.15e+06,98817.8,6.304e+06,2.96072e+25,2.66943e+21,2.61502e+11,0.637607,3.12604e+30,0.03468,9.04488e-05,1.09644e-11,9.34007e-63,2.09529e+15,8.55405e+15,3.9825e+11,1.06497e+16
4.25e+06,98808.6,6.30373e+06,3.17977e+25,2.86647e+21,2.67802e+11,0.637662,3.12468e+30,0.03468,9.04479e-05,1.09641e-11,9.33938e-63,2.09496e+15,8.55289e+15,3.98181e+11,1.06483e+16
4.35e+06,98799.3,6.30345e+06,3.40936e+25,3.07294e+21,2.74103e+11,0.637719,3.12329e+30,0.03468,9.04467e-05,1.09635e-11,9.33841e-63,2.09463e+15,8.55171e+15,3.98111e+11,1.06467e+16
4.45e+06,98789.7,6.30317e+06,3.64972e+25,3.28903e+21,2.80404e+11,0.637776,3.12187e+30,0.03468,9.04471e-05,1.09637e-11,9.33871e-63,2.0943e+15,8.55049e+15,3.98039e+11,1.06452e+16
4.55e+06,98780,6.30288e+06,3.90111e+25,3.51498e+21,2.86704e+11,0.637835,3.12042e+30,0.03468,9.04467e-05,1.09635e-11,9.3384e-63,2.09395e+15,8.54925e+15,3.97965e+11,1.06436e+16
4.65e+06,98770,6.30258e+06,4.16377e+25,3.75099e+21,2.93005e+11,0.637895,3.11894e+30,0.03468,9.04461e-05,1.09633e-11,9.3379e-63,2.0936e+15,8.54799e+15,3.9789e+11,1.0642e+16
4.75e+06,98759.8,6.30227e+06,4.43794e+25,3.99727e+21,2.99305e+11,0.637957,3.11743e+30,0.03468,9.04457e-05,1.09631e-11,9.33762e-63,2.09324e+15,8.54669e+15,3.97813e+11,1.06403e+16
4.85e+06,98749.3,6.30196e+06,4.72387e+25,4.25404e+21,3.05606e+11,0.63802,3.11588e+30,0.03468,9.04448e-05,1.09627e-11,9.33679e-63,2.09287e+15,8.54537e+15,3.97735e+11,1.06386e+16
4.95e+06,98738.7,6.30165e+06,5.02181e+25,4.52152e+21,3.11906e+11,0.638084,3.1143e+30,0.03468,9.04432e-05,1.0962e-11,9.33563e-63,2.09249e+15,8.54402e+15,3.97655e+11,1.06369e+16
5.05e+06,98727.9,6.30132e+06,5.332e+25,4.7999e+21,3.18206e+11,0.638149,3.11269e+30,0.03468,9.04437e-05,1.09622e-11,9.33599e-63,2.09211e+15,8.54264e+15,3.97574e+11,1.06351e+16
5.15e+06,98716.8,6.30099e+06,5.65469e+25,5.0894e+21,3.24507e+11,0.638216,3.11105e+30,0.03468,9.04433e-05,1.0962e-11,9.33562e-63,2.09172e+15,8.54124e+15,3.9749e+11,1.06334e+16
5.25e+06,98705.5,6.30066e+06,5.99012e+25,5.39024e+21,3.30807e+11,0.638284,3.10938e+30,0.03468,9.04426e-05,1.09617e-11,9.33503e-63,2.09132e+15,8.5398e+15,3.97406e+11,1.06315e+16
5.35e+06,98694,6.30032e+06,6.33853e+25,5.70262e+21,3.37107e+11,0.638354,3.10768e+30,0.03468,9.04421e-05,1.09616e-11,9.3347e-63,2.09091e+15,8.53834e+15,3.97319e+11,1.06297e+16
5.45e+06,98682.3,6.29997e+06,6.70017e+25,6.02674e+21,3.43407e+11,0.638424,3.10595e+30,0.03468,9.0441e-05,1.0961e-11,9.33374e-63,2.0905e+15,8.53686e+15,3.97231e+11,1.06278e+16
5.55e+06,98670.4,6.29961e+06,7.07528e+25,6.36283e+21,3.49707e+11,0.638496,3.10418e+30,0.03468,9.04392e-05,1.09603e-11,9.33238e-63,2.09008e+15,8.53534e+15,3.97141e+11,1.06258e+16
5.65e+06,98658.2,6.29925e+06,7.46411e+25,6.71109e+21,3.56007e+11,0.63857,3.10239e+30,0.03468,9.04398e-05,1.09605e-11,9.33281e-63,2.08965e+15,8.5338e+15,3.9705e+11,1.06239e+16
5.75e+06,98645.9,6.29888e+06,7.8669e+25,7.07172e+21,3.62307e+11,0.638644,3.10056e+30,0.03468,9.04393e-05,1.09603e-11,9.33238e-63,2.08922e+15,8.53224e+15,3.96957e+11,1.06218e+16
5.85e+06,98633.3,6.29851e+06,8.28389e+25,7.44494e+21,3.68607e+11,0.63872,3.0987e+30,0.03468,9.04385e-05,1.09599e-11,9.3317e-63,2.08877e+15,8.53064e+15,3.96863e+11,1.06198e+16
5.95e+06,98620.5,6.29813e+06,8.71533e+25,7.83094e+21,3.74907e+11,0.638798,3.09682e+30,0.03468,9.0438e-05,1.09597e-11,9.33133e-63,2.08832e+15,8.52902e+15,3.96767e+11,1.06177e+16
6.05e+06,98607.5,6.29774e+06,9.16146e+25,8.22994e+21,3.81207e+11,0.638876,3.0949e+30,0.03468,9.04367e-05,1.09592e-11,9.33023e-63,2.08786e+15,8.52737e+15,3.96669e+11,1.06156e+16
6.15e+06,98594.3,6.29734e+06,9.62253e+25,8.64213e+21,3.87507e+11,0.638956,3.09295e+30,0.03468,9.04346e-05,1.09583e-11,9.32867e-63,2.08739e+15,8.52569e+15,3.9657e+11,1.06135e+16
6.25e+06,98580.9,6.29694e+06,1.00988e+26,9.06773e+21,3.93807e+11,0.639038,3.09097e+30,0.03468,9.04353e-05,1.09586e-11,9.32917e-63,2.08692e+15,8.52399e+15,3.96469e+11,1.06113e+16
6.35e+06,98567.2,6.29654e+06,1.05904e+26,9.50693e+21,4.00106e+11,0.63912,3.08896e+30,0.03468,9.04347e-05,1.09583e-11,9.32868e-63,2.08644e+15,8.52226e+15,3.96367e+11,1.06091e+16
6.45e+06,98553.3,6.29612e+06,1.10977e+26,9.95995e+21,4.06406e+11,0.639204,3.08691e+30,0.03468,9.04338e-05,1.09579e-11,9.32791e-63,2.08595e+15,8.5205e+15,3.96263e+11,1.06068e+16
6.55e+06,98539.3,6.2957e+06,1.1621e+26,1.0427e+22,4.12706e+11,0.639289,3.08484e+30,0.03468,9.04332e-05,1.09577e-11,9.32749e-63,2.08545e+15,8.51872e+15,3.96157e+11,1.06046e+16
6.65e+06,98525,6.29528e+06,1.21603e+26,1.09082e+22,4.19005e+11,0.639376,3.08274e+30,0.03468,9.04318e-05,1.0957e-11,9.32626e-63,2.08495e+15,8.5169e+15,3.9605e+11,1.06022e+16
6.75e+06,98510.5,6.29484e+06,1.27161e+26,1.14039e+22,4.25305e+11,0.639464,3.08061e+30,0.03468,9.04294e-05,1.09561e-11,9.32451e-63,2.08444e+15,8.51507e+15,3.95941e+11,1.05999e+16
6.85e+06,98495.8,6.29441e+06,1.32885e+26,1.19141e+22,4.31604e+11,0.639553,3.07844e+30,0.03468,9.04302e-05,1.09564e-11,9.32506e-63,2.08392e+15,8.5132e+15,3.9583e+11,1.05975e+16
6.95e+06,98480.8,6.29396e+06,1.38777e+26,1.24392e+22,4.37903e+11,0.639644,3.07625e+30,0.03468,9.04296e-05,1.09561e-11,9.32452e-63,2.08339e+15,8.51131e+15,3.95718e+11,1.05951e+16
7.05e+06,98465.7,6.29351e+06,1.44841e+26,1.29793e+22,4.44203e+11,0.639736,3.07403e+30,0.03468,9.04286e-05,1.09556e-11,9.32366e-63,2.08286e+15,8.50939e+15,3.95605e+11,1.05926e+16
7.15e+06,98450.3,6.29305e+06,1.51078e+26,1.35346e+22,4.50502e+11,0.639829,3.07177e+30,0.03468,9.04279e-05,1.09554e-11,9.32319e-63,2.08232e+15,8.50744e+15,3.95489e+11,1.05902e+16
7.25e+06,98434.7,6.29259e+06,1.57491e+26,1.41053e+22,4.56801e+11,0.639923,3.06949e+30,0.03468,9.04263e-05,1.09546e-11,9.32183e-63,2.08177e+15,8.50547e+15,3.95373e+11,1.05876e+16
7.35e+06,98419,6.29211e+06,1.64082e+26,1.46916e+22,4.631e+11,0.640019,3.06718e+30,0.03468,9.04237e-05,1.09536e-11,9.31988e-63,2.08121e+15,8.50346e+15,3.95254e+11,1.05851e+16
7.45e+06,98403,6.29164e+06,1.70855e+26,1.52937e+22,4.69399e+11,0.640116,3.06483e+30,0.03468,9.04246e-05,1.09539e-11,9.3205e-63,2.08065e+15,8.50144e+15,3.95134e+11,1.05825e+16
7.55e+06,98386.8,6.29115e+06,1.7781e+26,1.59117e+22,4.75698e+11,0.640215,3.06246e+30,0.03468,9.04238e-05,1.09536e-11,9.3199e-63,2.08008e+15,8.49938e+15,3.95013e+11,1.05799e+16
7.65e+06,98370.3,6.29066e+06,1.84951e+26,1.6546e+22,4.81997e+11,0.640315,3.06006e+30,0.03468,9.04228e-05,1.09531e-11,9.31895e-63,2.0795e+15,8.4973e+15,3.9489e+11,1.05772e+16
7.75e+06,98353.7,6.29017e+06,1.92279e+26,1.71967e+22,4.88295e+11,0.640416,3.05762e+30,0.03468,9.04221e-05,1.09528e-11,9.31843e-63,2.07891e+15,8.49519e+15,3.94765e+11,1.05745e+16
7.85e+06,98336.8,6.28966e+06,1.99798e+26,1.78639e+22,4.94594e+11,0.640518,3.05516e+30,0.03468,9.04203e-05,1.0952e-11,9.31693e-63,2.07832e+15,8.49306e+15,3.94639e+11,1.05718e+16
7.95e+06,98319.8,6.28915e+06,2.0751e+26,1.85479e+22,5.00893e+11,0.640622,3.05267e+30,0.03468,9.04174e-05,1.09509e-11,9.31479e-63,2.07772e+15,8.4909e+15,3.94511e+11,1.0569e+16
8.05e+06,98302.5,6.28864e+06,2.15417e+26,1.92488e+22,5.07191e+11,0.640727,3.05015e+30,0.03468,9.04184e-05,1.09512e-11,9.31548e-63,2.07711e+15,8.48871e+15,3.94381e+11,1.05662e+16
8.15e+06,98285,6.28811e+06,2.23521e+26,1.99669e+22,5.1349e+11,0.640834,3.0476e+30,0.03468,9.04176e-05,1.09509e-11,9.31482e-63,2.07649e+15,8.48649e+15,3.9425e+11,1.05634e+16
8.25e+06,98267.3,6.28759e+06,2.31825e+26,2.07023e+22,5.19788e+11,0.640941,3.04502e+30,0.03468,9.04164e-05,1.09503e-11,9.31378e-63,2.07587e+15,8.48425e+15,3.94118e+11,1.05605e+16
8.35e+06,98249.4,6.28705e+06,2.40331e+26,2.14552e+22,5.26087e+11,0.641051,3.04241e+30,0.03468,9.04156e-05,1.095e-11,9.31322e-63,2.07524e+15,8.48198e+15,3.93984e+11,1.05576e+16
8.45e+06,98231.3,6.28651e+06,2.49042e+26,2.22258e+22,5.32385e+11,0.641161,3.03977e+30,0.03468,9.04137e-05,1.09492e-11,9.31158e-63,2.0746e+15,8.47969e+15,3.93848e+11,1.05547e+16
8.55e+06,98212.9,6.28596e+06,2.5796e+26,2.30144e+22,5.38683e+11,0.641273,3.03711e+30,0.03468,9.04105e-05,1.09479e-11,9.30925e-63,2.07396e+15,8.47737e+15,3.93711e+11,1.05517e+16
8.65e+06,98194.4,6.28541e+06,2.67088e+26,2.38209e+22,5.44981e+11,0.641386,3.03441e+30,0.03468,9.04116e-05,1.09483e-11,9.30999e-63,2.0733e+15,8.47502e+15,3.93572e+11,1.05487e+16
8.75e+06,98175.6,6.28485e+06,2.76427e+26,2.46458e+22,5.51279e+11,0.6415,3.03168e+30,0.03468,9.04107e-05,1.09479e-11,9.30928e-63,2.07264e+15,8.47264e+15,3.93431e+11,1.05457e+16
8.85e+06,98156.6,6.28428e+06,2.8598e+26,2.54891e+22,5.57577e+11,0.641616,3.02893e+30,0.03468,9.04094e-05,1.09473e-11,9.30816e-63,2.07197e+15,8.47024e+15,3.93289e+11,1.05426e+16
8.95e+06,98137.5,6.28371e+06,2.95749e+26,2.6351e+22,5.63875e+11,0.641733,3.02615e+30,0.03468,9.04086e-05,1.0947e-11,9.30754e-63,2.0713e+15,8.46781e+15,3.93146e+11,1.05395e+16
9.05e+06,98118.1,6.28313e+06,3.05737e+26,2.72318e+22,5.70173e+11,0.641852,3.02334e+30,0.03468,9.04065e-05,1.0946e-11,9.30577e-63,2.07062e+15,8.46536e+15,3.93001e+11,1.05364e+16
9.15e+06,98098.5,6.28254e+06,3.15947e+26,2.81315e+22,5.76471e+11,0.641972,3.0205e+30,0.03468,9.04031e-05,1.09447e-11,9.30325e-63,2.06993e+15,8.46288e+15,3.92854e+11,1.05332e+16
9.25e+06,98078.6,6.28195e+06,3.2638e+26,2.90504e+22,5.82768e+11,0.642093,3.01763e+30,0.03468,9.04042e-05,1.09451e-11,9.30405e-63,2.06923e+15,8.46037e+15,3.92706e+11,1.053e+16
9.35e+06,98058.6,6.28135e+06,3.37039e+26,2.99886e+22,5.89066e+11,0.642215,3.01473e+30,0.03468,9.04033e-05,1.09447e-11,9.30329e-63,2.06853e+15,8.45783e+15,3.92556e+11,1.05268e+16
9.45e+06,98038.4,6.28074e+06,3.47926e+26,3.09464e+22,5.95363e+11,0.642339,3.01181e+30,0.03468,9.04019e-05,1.0944e-11,9.30207e-63,2.06782e+15,8.45527e+15,3.92405e+11,1.05235e+16
9.55e+06,98017.9,6.28013e+06,3.59044e+26,3.19238e+22,6.01661e+11,0.642464,3.00886e+30,0.03468,9.0401e-05,1.09437e-11,9.30141e-63,2.0671e+15,8.45269e+15,3.92252e+11,1.05202e+16
9.65e+06,97997.3,6.27951e+06,3.70394e+26,3.29212e+22,6.07958e+11,0.642591,3.00588e+30,0.03468,9.03988e-05,1.09427e-11,9.29951e-63,2.06637e+15,8.45007e+15,3.92098e+11,1.05168e+16
9.75e+06,97976.4,6.27889e+06,3.8198e+26,3.39386e+22,6.14255e+11,0.642719,3.00287e+30,0.03468,9.03951e-05,1.09412e-11,9.29679e-63,2.06564e+15,8.44743e+15,3.91942e+11,1.05135e+16
9.85e+06,97955.3,6.27826e+06,3.93803e+26,3.49762e+22,6.20552e+11,0.642848,2.99983e+30,0.03468,9.03963e-05,1.09417e-11,9.29766e-63,2.0649e+15,8.44477e+15,3.91784e+11,1.05101e+16
9.95e+06,97934,6.27762e+06,4.05867e+26,3.60342e+22,6.26849e+11,0.642978,2.99677e+30,0.03468,9.03953e-05,1.09412e-11,9.29683e-63,2.06415e+15,8.44207e+15,3.91625e+11,1.05066e+16
1.005e+07,97912.5,6.27698e+06,4.18172e+26,3.71128e+22,6.33146e+11,0.64311,2.99367e+30,0.03468,9.03938e-05,1.09405e-11,9.29553e-63,2.06339e+15,8.43936e+15,3.91465e+11,1.05031e+16
1.015e+07,97890.8,6.27633e+06,4.30722e+26,3.82121e+22,6.39443e+11,0.643243,2.99055e+30,0.03468,9.03929e-05,1.09401e-11,9.29482e-63,2.06263e+15,8.43661e+15,3.91303e+11,1.04996e+16
1.025e+07,97868.9,6.27567e+06,4.43519e+26,3.93324e+22,6.4574e+11,0.643378,2.98741e+30,0.03468,9.03905e-05,1.09391e-11,9.29279e-63,2.06186e+15,8.43384e+15,3.91139e+11,1.04961e+16
1.035e+07,97846.7,6.27501e+06,4.56566e+26,4.04737e+22,6.52037e+11,0.643514,2.98423e+30,0.03468,9.03865e-05,1.09375e-11,9.28988e-63,2.06108e+15,8.43104e+15,3.90974e+11,1.04925e+16
1.045e+07,97824.4,6.27434e+06,4.69863e+26,4.16363e+22,6.58333e+11,0.643651,2.98103e+30,0.03468,9.03878e-05,1.0938e-11,9.29081e-63,2.0603e+15,8.42822e+15,3.90807e+11,1.04889e+16
1.055e+07,97801.9,6.27367e+06,4.83415e+26,4.28202e+22,6.6463e+11,0.64379,2.9778e+30,0.03468,9.03868e-05,1.09375e-11,9.28993e-63,2.05951e+15,8.42537e+15,3.90639e+11,1.04853e+16
1.065e+07,97779.1,6.27298e+06,4.97223e+26,4.40258e+22,6.70926e+11,0.64393,2.97454e+30,0.03468,9.03852e-05,1.09368e-11,9.28853e-63,2.05871e+15,8.42249e+15,3.90469e+11,1.04816e+16
1.075e+07,97756.1,6.2723e+06,5.11289e+26,4.52531e+22,6.77222e+11,0.644071,2.97126e+30,0.03468,9.03841e-05,1.09364e-11,9.28777e-63,2.0579e+15,8.41959e+15,3.90298e+11,1.04779e+16
1.085e+07,97733,6.2716e+06,5.25616e+26,4.65023e+22,6.83519e+11,0.644214,2.96795e+30,0.03468,9.03816e-05,1.09352e-11,9.28561e-63,2.05709e+15,8.41666e+15,3.90125e+11,1.04741e+16
1.095e+07,97709.6,6.2709e+06,5.40206e+26,4.77736e+22,6.89815e+11,0.644358,2.96461e+30,0.03468,9.03774e-05,1.09335e-11,9.28251e-63,2.05627e+15,8.41371e+15,3.89951e+11,1.04704e+16
