X = 0.734
Y = 0.25
Z = 0.016
mu = 0.601142
Radius,Density,Temp,Mass,Lum,OptD,Kff,KH,Kes,PP,CNO,3a,Deg,Gas,Rad,TotPres
0,0,0,0,0,0,-nan,0,0.03468,0.000383696,9.55827e-09,2.89779e-56,0,0,0,0
1,110000,8.81972e+06,460767,176.799,23340.1,0.212183,6.77357e+31,0.03468,0.000383696,9.55827e-09,2.89779e-56,2.50518e+15,1.3322e+16,1.52584e+12,1.58287e+16
30001,110000,8.81972e+06,1.2442e+19,4.77404e+15,7.00226e+08,0.212183,6.77357e+31,0.03468,0.000383696,9.55827e-09,2.89779e-56,2.50518e+15,1.33219e+16,1.52584e+12,1.58287e+16
70001,110000,8.81971e+06,1.5805e+20,6.06445e+16,1.63383e+09,0.212183,6.77355e+31,0.03468,0.000383696,9.55827e-09,2.89779e-56,2.50518e+15,1.33219e+16,1.52584e+12,1.58286e+16
150001,110000,8.81971e+06,1.55512e+21,5.96705e+17,3.50104e+09,0.212183,6.7735e+31,0.03468,0.000383696,9.55827e-09,2.89779e-56,2.50517e+15,1.33219e+16,1.52583e+12,1.58286e+16
250001,109999,8.81969e+06,7.19954e+21,2.76248e+18,5.83504e+09,0.212184,6.77339e+31,0.03468,0.000383696,9.55827e-09,2.89779e-56,2.50516e+15,1.33218e+16,1.52582e+12,1.58285e+16
350001,109999,8.81967e+06,1.97554e+22,7.58011e+18,8.16905e+09,0.212185,6.77321e+31,0.03468,0.000383696,9.55827e-09,2.89779e-56,2.50513e+15,1.33217e+16,1.52581e+12,1.58284e+16
450001,109998,8.81964e+06,4.19872e+22,1.61102e+19,1.05031e+10,0.212186,6.77298e+31,0.03468,0.000383696,9.55827e-09,2.89779e-56,2.5051e+15,1.33216e+16,1.52579e+12,1.58282e+16
550001,109997,8.8196e+06,7.66592e+22,2.94131e+19,1.28371e+10,0.212188,6.77268e+31,0.03468,0.000383696,9.55827e-09,2.89779e-56,2.50506e+15,1.33214e+16,1.52576e+12,1.5828e+16
650001,109996,8.81956e+06,1.26536e+23,4.85491e+19,1.51711e+10,0.21219,6.77233e+31,0.03468,0.000383696,9.55827e-09,2.89779e-56,2.50502e+15,1.33212e+16,1.52573e+12,1.58277e+16
750001,109994,8.8195e+06,1.94381e+23,7.45782e+19,1.75051e+10,0.212193,6.77192e+31,0.03468,0.000383696,9.55827e-09,2.89779e-56,2.50496e+15,1.33209e+16,1.52569e+12,1.58274e+16
850001,109992,8.81944e+06,2.82958e+23,1.0856e+20,1.9839e+10,0.212195,6.77146e+31,0.03468,0.000383696,9.55827e-09,2.89779e-56,2.5049e+15,1.33206e+16,1.52565e+12,1.58271e+16
950001,109991,8.81938e+06,3.95031e+23,1.51554e+20,2.2173e+10,0.212199,6.77093e+31,0.03468,0.000383696,9.55826e-09,2.89779e-56,2.50483e+15,1.33203e+16,1.5256e+12,1.58267e+16
1.05e+06,109989,8.8193e+06,5.33364e+23,2.04619e+20,2.4507e+10,0.212202,6.77035e+31,0.03468,0.000383696,9.55826e-09,2.89779e-56,2.50475e+15,1.33199e+16,1.52555e+12,1.58262e+16
1.15e+06,109986,8.81922e+06,7.00718e+23,2.68813e+20,2.6841e+10,0.212206,6.7697e+31,0.03468,0.000383696,9.55826e-09,2.89778e-56,2.50466e+15,1.33195e+16,1.52549e+12,1.58257e+16
1.25e+06,109984,8.81913e+06,8.99858e+23,3.45195e+20,2.9175e+10,0.21221,6.769e+31,0.03468,0.000383695,9.55824e-09,2.89778e-56,2.50457e+15,1.33191e+16,1.52543e+12,1.58252e+16
1.35e+06,109981,8.81903e+06,1.13355e+24,4.34821e+20,3.15089e+10,0.212215,6.76824e+31,0.03468,0.000383695,9.55824e-09,2.89777e-56,2.50447e+15,1.33186e+16,1.52536e+12,1.58246e+16
1.45e+06,109978,8.81892e+06,1.40454e+24,5.3875e+20,3.38429e+10,0.21222,6.76742e+31,0.03468,0.000383695,9.55824e-09,2.89777e-56,2.50436e+15,1.33181e+16,1.52529e+12,1.5824e+16
1.55e+06,109975,8.81881e+06,1.71561e+24,6.58037e+20,3.61769e+10,0.212225,6.76655e+31,0.03468,0.000383695,9.55823e-09,2.89777e-56,2.50424e+15,1.33176e+16,1.52521e+12,1.58233e+16
1.65e+06,109972,8.81869e+06,2.06951e+24,7.93738e+20,3.85108e+10,0.212231,6.76561e+31,0.03468,0.000383695,9.55821e-09,2.89775e-56,2.50411e+15,1.3317e+16,1.52513e+12,1.58226e+16
1.75e+06,109968,8.81856e+06,2.469e+24,9.46908e+20,4.08447e+10,0.212237,6.76462e+31,0.03468,0.000383695,9.5582e-09,2.89774e-56,2.50398e+15,1.33164e+16,1.52504e+12,1.58219e+16
1.85e+06,109965,8.81843e+06,2.91685e+24,1.1186e+21,4.31787e+10,0.212243,6.76357e+31,0.03468,0.000383694,9.55814e-09,2.8977e-56,2.50384e+15,1.33157e+16,1.52495e+12,1.58211e+16
1.95e+06,109961,8.81828e+06,3.4158e+24,1.30987e+21,4.55126e+10,0.21225,6.76246e+31,0.03468,0.000383694,9.5581e-09,2.89768e-56,2.50369e+15,1.3315e+16,1.52485e+12,1.58202e+16
2.05e+06,109957,8.81813e+06,3.96863e+24,1.52177e+21,4.78465e+10,0.212257,6.7613e+31,0.03468,0.000383694,9.5581e-09,2.89768e-56,2.50354e+15,1.33143e+16,1.52474e+12,1.58194e+16
2.15e+06,109952,8.81797e+06,4.57809e+24,1.75535e+21,5.01804e+10,0.212265,6.76007e+31,0.03468,0.000383693,9.55807e-09,2.89766e-56,2.50337e+15,1.33135e+16,1.52463e+12,1.58184e+16
2.25e+06,109948,8.81781e+06,5.24694e+24,2.01166e+21,5.25143e+10,0.212273,6.75879e+31,0.03468,0.000383693,9.55802e-09,2.89762e-56,2.5032e+15,1.33127e+16,1.52452e+12,1.58175e+16
2.35e+06,109943,8.81763e+06,5.97793e+24,2.29175e+21,5.48482e+10,0.212281,6.75745e+31,0.03468,0.000383692,9.55798e-09,2.8976e-56,2.50302e+15,1.33119e+16,1.5244e+12,1.58165e+16
2.45e+06,109938,8.81745e+06,6.77382e+24,2.59667e+21,5.71821e+10,0.212289,6.75605e+31,0.03468,0.000383691,9.55786e-09,2.89752e-56,2.50283e+15,1.3311e+16,1.52427e+12,1.58154e+16
2.55e+06,109933,8.81727e+06,7.63736e+24,2.92747e+21,5.9516e+10,0.212298,6.75459e+31,0.03468,0.00038369,9.55774e-09,2.89744e-56,2.50264e+15,1.33101e+16,1.52414e+12,1.58143e+16
2.65e+06,109928,8.81707e+06,8.57132e+24,3.2852e+21,6.18498e+10,0.212308,6.75307e+31,0.03468,0.00038369,9.55777e-09,2.89746e-56,2.50243e+15,1.33092e+16,1.52401e+12,1.58131e+16
2.75e+06,109922,8.81687e+06,9.57845e+24,3.67089e+21,6.41837e+10,0.212317,6.7515e+31,0.03468,0.000383689,9.55771e-09,2.89742e-56,2.50222e+15,1.33082e+16,1.52387e+12,1.58119e+16
2.85e+06,109916,8.81665e+06,1.06615e+25,4.0856e+21,6.65175e+10,0.212327,6.74987e+31,0.03468,0.000383688,9.55762e-09,2.89736e-56,2.502e+15,1.33072e+16,1.52372e+12,1.58107e+16
2.95e+06,109910,8.81644e+06,1.18232e+25,4.53036e+21,6.88513e+10,0.212338,6.74818e+31,0.03468,0.000383688,9.55757e-09,2.89733e-56,2.50178e+15,1.33061e+16,1.52357e+12,1.58094e+16
3.05e+06,109904,8.81621e+06,1.30663e+25,5.00623e+21,7.11851e+10,0.212348,6.74644e+31,0.03468,0.000383686,9.5574e-09,2.89721e-56,2.50154e+15,1.3305e+16,1.52341e+12,1.58081e+16
3.15e+06,109898,8.81598e+06,1.43937e+25,5.51423e+21,7.35189e+10,0.212359,6.74463e+31,0.03468,0.000383683,9.55718e-09,2.89707e-56,2.5013e+15,1.33039e+16,1.52325e+12,1.58067e+16
3.25e+06,109891,8.81574e+06,1.58079e+25,6.05541e+21,7.58527e+10,0.212371,6.74277e+31,0.03468,0.000383684,9.55725e-09,2.89711e-56,2.50105e+15,1.33028e+16,1.52309e+12,1.58053e+16
3.35e+06,109884,8.81549e+06,1.73118e+25,6.63081e+21,7.81865e+10,0.212383,6.74085e+31,0.03468,0.000383683,9.55717e-09,2.89706e-56,2.50079e+15,1.33016e+16,1.52291e+12,1.58039e+16
3.45e+06,109877,8.81523e+06,1.89081e+25,7.24145e+21,8.05202e+10,0.212395,6.73887e+31,0.03468,0.000383682,9.55704e-09,2.89698e-56,2.50053e+15,1.33003e+16,1.52274e+12,1.58024e+16
3.55e+06,109870,8.81497e+06,2.05996e+25,7.88839e+21,8.28539e+10,0.212407,6.73684e+31,0.03468,0.000383681,9.55697e-09,2.89693e-56,2.50026e+15,1.32991e+16,1.52255e+12,1.58008e+16
3.65e+06,109863,8.8147e+06,2.2389e+25,8.57264e+21,8.51877e+10,0.21242,6.73475e+31,0.03468,0.000383679,9.55675e-09,2.89679e-56,2.49998e+15,1.32978e+16,1.52237e+12,1.57993e+16
3.75e+06,109855,8.81442e+06,2.42791e+25,9.29524e+21,8.75214e+10,0.212433,6.7326e+31,0.03468,0.000383675,9.55645e-09,2.89659e-56,2.49969e+15,1.32964e+16,1.52218e+12,1.57976e+16
3.85e+06,109847,8.81413e+06,2.62725e+25,1.00572e+22,8.9855e+10,0.212447,6.73039e+31,0.03468,0.000383676,9.55654e-09,2.89665e-56,2.49939e+15,1.3295e+16,1.52198e+12,1.5796e+16
3.95e+06,109839,8.81384e+06,2.83721e+25,1.08596e+22,9.21887e+10,0.212461,6.72813e+31,0.03468,0.000383675,9.55644e-09,2.89658e-56,2.49909e+15,1.32936e+16,1.52177e+12,1.57942e+16
4.05e+06,109831,8.81354e+06,3.05806e+25,1.17034e+22,9.45224e+10,0.212475,6.72581e+31,0.03468,0.000383673,9.55628e-09,2.89647e-56,2.49878e+15,1.32922e+16,1.52157e+12,1.57925e+16
4.15e+06,109823,8.81323e+06,3.29007e+25,1.25897e+22,9.6856e+10,0.21249,6.72343e+31,0.03468,0.000383672,9.55619e-09,2.89641e-56,2.49846e+15,1.32907e+16,1.52135e+12,1.57907e+16
4.25e+06,109814,8.81291e+06,3.53352e+25,1.35195e+22,9.91896e+10,0.212505,6.72099e+31,0.03468,0.000383669,9.55592e-09,2.89624e-56,2.49813e+15,1.32892e+16,1.52113e+12,1.57888e+16
4.35e+06,109805,8.81259e+06,3.78868e+25,1.44938e+22,1.01523e+11,0.21252,6.7185e+31,0.03468,0.000383665,9.55554e-09,2.89598e-56,2.49779e+15,1.32876e+16,1.52091e+12,1.57869e+16
4.45e+06,109796,8.81226e+06,4.05582e+25,1.55136e+22,1.03857e+11,0.212536,6.71595e+31,0.03468,0.000383666,9.55566e-09,2.89606e-56,2.49745e+15,1.3286e+16,1.52068e+12,1.5785e+16
4.55e+06,109787,8.81192e+06,4.33522e+25,1.65799e+22,1.0619e+11,0.212552,6.71334e+31,0.03468,0.000383665,9.55554e-09,2.89598e-56,2.4971e+15,1.32844e+16,1.52045e+12,1.5783e+16
4.65e+06,109777,8.81157e+06,4.62714e+25,1.76938e+22,1.08524e+11,0.212568,6.71068e+31,0.03468,0.000383663,9.55535e-09,2.89585e-56,2.49674e+15,1.32827e+16,1.52021e+12,1.5781e+16
4.75e+06,109768,8.81122e+06,4.93188e+25,1.88563e+22,1.10857e+11,0.212585,6.70796e+31,0.03468,0.000383661,9.55524e-09,2.89578e-56,2.49638e+15,1.3281e+16,1.51997e+12,1.57789e+16
4.85e+06,109758,8.81086e+06,5.24968e+25,2.00683e+22,1.13191e+11,0.212602,6.70518e+31,0.03468,0.000383658,9.55492e-09,2.89557e-56,2.496e+15,1.32793e+16,1.51972e+12,1.57768e+16
4.95e+06,109748,8.81049e+06,5.58084e+25,2.13309e+22,1.15524e+11,0.21262,6.70235e+31,0.03468,0.000383652,9.55446e-09,2.89526e-56,2.49562e+15,1.32775e+16,1.51946e+12,1.57747e+16
5.05e+06,109738,8.81011e+06,5.92562e+25,2.26451e+22,1.17858e+11,0.212638,6.69946e+31,0.03468,0.000383654,9.5546e-09,2.89536e-56,2.49523e+15,1.32757e+16,1.5192e+12,1.57725e+16
5.15e+06,109727,8.80973e+06,6.28429e+25,2.40119e+22,1.20191e+11,0.212656,6.69651e+31,0.03468,0.000383653,9.55446e-09,2.89526e-56,2.49484e+15,1.32739e+16,1.51894e+12,1.57702e+16
5.25e+06,109716,8.80933e+06,6.65713e+25,2.54323e+22,1.22525e+11,0.212674,6.69351e+31,0.03468,0.00038365,9.55423e-09,2.89511e-56,2.49443e+15,1.3272e+16,1.51867e+12,1.57679e+16
5.35e+06,109706,8.80894e+06,7.04442e+25,2.69074e+22,1.24858e+11,0.212693,6.69045e+31,0.03468,0.000383649,9.5541e-09,2.89502e-56,2.49402e+15,1.32701e+16,1.51839e+12,1.57656e+16
5.45e+06,109695,8.80853e+06,7.44641e+25,2.8438e+22,1.27191e+11,0.212713,6.68734e+31,0.03468,0.000383645,9.55373e-09,2.89478e-56,2.4936e+15,1.32681e+16,1.51811e+12,1.57632e+16
5.55e+06,109683,8.80812e+06,7.86338e+25,3.00252e+22,1.29525e+11,0.212732,6.68416e+31,0.03468,0.000383638,9.55319e-09,2.89442e-56,2.49317e+15,1.32661e+16,1.51783e+12,1.57608e+16
5.65e+06,109672,8.80769e+06,8.29561e+25,3.167e+22,1.31858e+11,0.212752,6.68094e+31,0.03468,0.00038364,9.55336e-09,2.89453e-56,2.49274e+15,1.32641e+16,1.51754e+12,1.57583e+16
5.75e+06,109660,8.80726e+06,8.74337e+25,3.33733e+22,1.34191e+11,0.212773,6.67765e+31,0.03468,0.000383638,9.55319e-09,2.89442e-56,2.49229e+15,1.3262e+16,1.51724e+12,1.57558e+16
5.85e+06,109648,8.80683e+06,9.20693e+25,3.51363e+22,1.36525e+11,0.212794,6.67431e+31,0.03468,0.000383636,9.55293e-09,2.89425e-56,2.49184e+15,1.32599e+16,1.51694e+12,1.57533e+16
5.95e+06,109636,8.80638e+06,9.68655e+25,3.69598e+22,1.38858e+11,0.212815,6.67092e+31,0.03468,0.000383634,9.55278e-09,2.89415e-56,2.49138e+15,1.32578e+16,1.51663e+12,1.57507e+16
6.05e+06,109624,8.80593e+06,1.01825e+26,3.88448e+22,1.41191e+11,0.212836,6.66747e+31,0.03468,0.000383629,9.55236e-09,2.89387e-56,2.49092e+15,1.32556e+16,1.51632e+12,1.57481e+16
6.15e+06,109611,8.80547e+06,1.06951e+26,4.07923e+22,1.43524e+11,0.212858,6.66396e+31,0.03468,0.000383622,9.55174e-09,2.89346e-56,2.49045e+15,1.32534e+16,1.51601e+12,1.57454e+16
6.25e+06,109599,8.80501e+06,1.12246e+26,4.28033e+22,1.45857e+11,0.21288,6.6604e+31,0.03468,0.000383624,9.55194e-09,2.89359e-56,2.48996e+15,1.32512e+16,1.51569e+12,1.57427e+16
6.35e+06,109586,8.80453e+06,1.17712e+26,4.48788e+22,1.48191e+11,0.212903,6.65678e+31,0.03468,0.000383622,9.55175e-09,2.89347e-56,2.48948e+15,1.32489e+16,1.51536e+12,1.57399e+16
6.45e+06,109573,8.80405e+06,1.23352e+26,4.70197e+22,1.50524e+11,0.212926,6.65311e+31,0.03468,0.000383619,9.55145e-09,2.89327e-56,2.48898e+15,1.32466e+16,1.51503e+12,1.57371e+16
6.55e+06,109559,8.80356e+06,1.29169e+26,4.9227e+22,1.52857e+11,0.212949,6.64938e+31,0.03468,0.000383617,9.55128e-09,2.89316e-56,2.48847e+15,1.32443e+16,1.51469e+12,1.57343e+16
6.65e+06,109546,8.80307e+06,1.35166e+26,5.15017e+22,1.5519e+11,0.212973,6.64559e+31,0.03468,0.000383612,9.55081e-09,2.89284e-56,2.48796e+15,1.32419e+16,1.51435e+12,1.57314e+16
6.75e+06,109532,8.80256e+06,1.41346e+26,5.38448e+22,1.57523e+11,0.212996,6.64176e+31,0.03468,0.000383603,9.55012e-09,2.89238e-56,2.48744e+15,1.32395e+16,1.514e+12,1.57284e+16
6.85e+06,109518,8.80205e+06,1.4771e+26,5.62571e+22,1.59856e+11,0.213021,6.63786e+31,0.03468,0.000383606,9.55034e-09,2.89253e-56,2.48692e+15,1.3237e+16,1.51365e+12,1.57254e+16
6.95e+06,109504,8.80153e+06,1.54262e+26,5.87397e+22,1.62189e+11,0.213046,6.63391e+31,0.03468,0.000383604,9.55013e-09,2.89239e-56,2.48638e+15,1.32345e+16,1.51329e+12,1.57224e+16
7.05e+06,109490,8.80101e+06,1.61004e+26,6.12935e+22,1.64522e+11,0.213071,6.62991e+31,0.03468,0.0003836,9.54979e-09,2.89217e-56,2.48584e+15,1.3232e+16,1.51293e+12,1.57194e+16
7.15e+06,109475,8.80047e+06,1.6794e+26,6.39194e+22,1.66855e+11,0.213096,6.62585e+31,0.03468,0.000383598,9.54961e-09,2.89204e-56,2.48529e+15,1.32294e+16,1.51257e+12,1.57162e+16
7.25e+06,109460,8.79993e+06,1.75071e+26,6.66185e+22,1.69187e+11,0.213122,6.62174e+31,0.03468,0.000383592,9.54908e-09,2.89169e-56,2.48473e+15,1.32269e+16,1.51219e+12,1.57131e+16
7.35e+06,109445,8.79938e+06,1.82401e+26,6.93916e+22,1.7152e+11,0.213148,6.61757e+31,0.03468,0.000383583,9.54831e-09,2.89119e-56,2.48417e+15,1.32242e+16,1.51182e+12,1.57099e+16
7.45e+06,109430,8.79883e+06,1.89932e+26,7.22397e+22,1.73853e+11,0.213175,6.61335e+31,0.03468,0.000383586,9.54856e-09,2.89135e-56,2.48359e+15,1.32216e+16,1.51143e+12,1.57067e+16
7.55e+06,109415,8.79826e+06,1.97667e+26,7.51638e+22,1.76186e+11,0.213201,6.60908e+31,0.03468,0.000383583,9.54832e-09,2.89119e-56,2.48301e+15,1.32189e+16,1.51105e+12,1.57034e+16
7.65e+06,109399,8.79769e+06,2.05608e+26,7.81647e+22,1.78519e+11,0.213229,6.60475e+31,0.03468,0.00038358,9.54795e-09,2.89095e-56,2.48243e+15,1.32161e+16,1.51065e+12,1.57001e+16
7.75e+06,109384,8.79711e+06,2.13758e+26,8.12434e+22,1.80851e+11,0.213256,6.60036e+31,0.03468,0.000383577,9.54775e-09,2.89081e-56,2.48183e+15,1.32134e+16,1.51026e+12,1.56967e+16
7.85e+06,109368,8.79653e+06,2.22121e+26,8.44009e+22,1.83184e+11,0.213284,6.59593e+31,0.03468,0.000383571,9.54717e-09,2.89043e-56,2.48123e+15,1.32105e+16,1.50985e+12,1.56933e+16
7.95e+06,109352,8.79593e+06,2.30697e+26,8.7638e+22,1.85517e+11,0.213313,6.59144e+31,0.03468,0.00038356,9.54633e-09,2.88987e-56,2.48062e+15,1.32077e+16,1.50945e+12,1.56898e+16
8.05e+06,109335,8.79533e+06,2.39492e+26,9.09557e+22,1.87849e+11,0.213341,6.58689e+31,0.03468,0.000383564,9.54659e-09,2.89005e-56,2.48e+15,1.32048e+16,1.50903e+12,1.56863e+16
8.15e+06,109319,8.79472e+06,2.48505e+26,9.43549e+22,1.90182e+11,0.21337,6.58229e+31,0.03468,0.000383561,9.54634e-09,2.88988e-56,2.47937e+15,1.32019e+16,1.50862e+12,1.56828e+16
8.25e+06,109302,8.79411e+06,2.57742e+26,9.78365e+22,1.92514e+11,0.2134,6.57764e+31,0.03468,0.000383557,9.54594e-09,2.88961e-56,2.47874e+15,1.3199e+16,1.50819e+12,1.56792e+16
8.35e+06,109285,8.79349e+06,2.67204e+26,1.01401e+23,1.94847e+11,0.213429,6.57293e+31,0.03468,0.000383554,9.54571e-09,2.88946e-56,2.4781e+15,1.3196e+16,1.50777e+12,1.56756e+16
8.45e+06,109268,8.79285e+06,2.76893e+26,1.05051e+23,1.97179e+11,0.21346,6.56818e+31,0.03468,0.000383547,9.54508e-09,2.88904e-56,2.47745e+15,1.3193e+16,1.50733e+12,1.56719e+16
8.55e+06,109250,8.79222e+06,2.86813e+26,1.08785e+23,1.99512e+11,0.21349,6.56337e+31,0.03468,0.000383536,9.54416e-09,2.88843e-56,2.47679e+15,1.31899e+16,1.5069e+12,1.56682e+16
8.65e+06,109233,8.79157e+06,2.96966e+26,1.12605e+23,2.01844e+11,0.213521,6.5585e+31,0.03468,0.00038354,9.54445e-09,2.88863e-56,2.47613e+15,1.31868e+16,1.50645e+12,1.56645e+16
8.75e+06,109215,8.79092e+06,3.07355e+26,1.16513e+23,2.04176e+11,0.213552,6.55358e+31,0.03468,0.000383537,9.54418e-09,2.88844e-56,2.47546e+15,1.31837e+16,1.50601e+12,1.56607e+16
8.85e+06,109197,8.79026e+06,3.17983e+26,1.20508e+23,2.06509e+11,0.213584,6.54861e+31,0.03468,0.000383532,9.54374e-09,2.88815e-56,2.47478e+15,1.31805e+16,1.50555e+12,1.56568e+16
8.95e+06,109179,8.78959e+06,3.28851e+26,1.24592e+23,2.08841e+11,0.213616,6.54359e+31,0.03468,0.000383529,9.5435e-09,2.88799e-56,2.47409e+15,1.31773e+16,1.5051e+12,1.56529e+16
9.05e+06,109161,8.78891e+06,3.39963e+26,1.28765e+23,2.11173e+11,0.213648,6.53852e+31,0.03468,0.000383522,9.54281e-09,2.88754e-56,2.4734e+15,1.31741e+16,1.50463e+12,1.5649e+16
9.15e+06,109142,8.78823e+06,3.51322e+26,1.33029e+23,2.13505e+11,0.213681,6.53339e+31,0.03468,0.00038351,9.54182e-09,2.88688e-56,2.4727e+15,1.31709e+16,1.50417e+12,1.56451e+16
9.25e+06,109123,8.78754e+06,3.6293e+26,1.37385e+23,2.15837e+11,0.213714,6.52821e+31,0.03468,0.000383514,9.54213e-09,2.88709e-56,2.47199e+15,1.31676e+16,1.50369e+12,1.5641e+16
9.35e+06,109104,8.78684e+06,3.74789e+26,1.41832e+23,2.1817e+11,0.213747,6.52298e+31,0.03468,0.00038351,9.54183e-09,2.88689e-56,2.47128e+15,1.31642e+16,1.50322e+12,1.5637e+16
9.45e+06,109085,8.78614e+06,3.86903e+26,1.46373e+23,2.20502e+11,0.213781,6.5177e+31,0.03468,0.000383505,9.54136e-09,2.88658e-56,2.47055e+15,1.31608e+16,1.50273e+12,1.56329e+16
9.55e+06,109066,8.78542e+06,3.99273e+26,1.51008e+23,2.22834e+11,0.213815,6.51236e+31,0.03468,0.000383502,9.5411e-09,2.8864e-56,2.46982e+15,1.31574e+16,1.50225e+12,1.56288e+16
9.65e+06,109046,8.7847e+06,4.11903e+26,1.55737e+23,2.25166e+11,0.21385,6.50698e+31,0.03468,0.000383494,9.54036e-09,2.88591e-56,2.46908e+15,1.3154e+16,1.50175e+12,1.56246e+16
9.75e+06,109026,8.78398e+06,4.24796e+26,1.60563e+23,2.27498e+11,0.213884,6.50154e+31,0.03468,0.000383481,9.53929e-09,2.88521e-56,2.46834e+15,1.31505e+16,1.50126e+12,1.56204e+16
9.85e+06,109006,8.78324e+06,4.37953e+26,1.65484e+23,2.29829e+11,0.21392,6.49605e+31,0.03468,0.000383485,9.53963e-09,2.88543e-56,2.46758e+15,1.3147e+16,1.50075e+12,1.56161e+16
9.95e+06,108986,8.7825e+06,4.51377e+26,1.70504e+23,2.32161e+11,0.213955,6.49051e+31,0.03468,0.000383482,9.53931e-09,2.88522e-56,2.46682e+15,1.31435e+16,1.50025e+12,1.56118e+16
1.005e+07,108966,8.78175e+06,4.65072e+26,1.75621e+23,2.34493e+11,0.213991,6.48492e+31,0.03468,0.000383477,9.5388e-09,2.88488e-56,2.46606e+15,1.31399e+16,1.49973e+12,1.56075e+16
1.015e+07,108945,8.78099e+06,4.79039e+26,1.80838e+23,2.36825e+11,0.214027,6.47927e+31,0.03468,0.000383473,9.53852e-09,2.8847e-56,2.46528e+15,1.31363e+16,1.49922e+12,1.56031e+16
1.025e+07,108925,8.78023e+06,4.93281e+26,1.86155e+23,2.39157e+11,0.214064,6.47358e+31,0.03468,0.000383465,9.53773e-09,2.88417e-56,2.4645e+15,1.31326e+16,1.49869e+12,1.55986e+16
1.035e+07,108904,8.77945e+06,5.07801e+26,1.91572e+23,2.41488e+11,0.214101,6.46784e+31,0.03468,0.000383451,9.53659e-09,2.88342e-56,2.46371e+15,1.3129e+16,1.49817e+12,1.55942e+16
1.045e+07,108882,8.77868e+06,5.22602e+26,1.97091e+23,2.4382e+11,0.214139,6.46204e+31,0.03468,0.000383455,9.53695e-09,2.88366e-56,2.46291e+15,1.31252e+16,1.49764e+12,1.55897e+16
1.055e+07,108861,8.77789e+06,5.37686e+26,2.02712e+23,2.46151e+11,0.214176,6.4562e+31,0.03468,0.000383451,9.53661e-09,2.88343e-56,2.4621e+15,1.31215e+16,1.4971e+12,1.55851e+16
1.065e+07,108840,8.77709e+06,5.53055e+26,2.08437e+23,2.48483e+11,0.214215,6.4503e+31,0.03468,0.000383446,9.53607e-09,2.88307e-56,2.46129e+15,1.31177e+16,1.49656e+12,1.55805e+16
1.075e+07,108818,8.77629e+06,5.68713e+26,2.14266e+23,2.50815e+11,0.214253,6.44436e+31,0.03468,0.000383442,9.53577e-09,2.88287e-56,2.46047e+15,1.31139e+16,1.49601e+12,1.55759e+16
1.085e+07,108796,8.77548e+06,5.84661e+26,2.202e+23,2.53146e+11,0.214292,6.43836e+31,0.03468,0.000383433,9.53492e-09,2.88231e-56,2.45964e+15,1.311e+16,1.49546e+12,1.55712e+16
1.095e+07,108774,8.77467e+06,6.00903e+26,2.26239e+23,2.55477e+11,0.214331,6.43232e+31,0.03468,0.000383418,9.5337e-09,2.88151e-56,2.45881e+15,1.31061e+16,1.4949e+12,1.55665e+16
