X = 0.734
Y = 0.25
Z = 0.016
mu = 0.601142
Radius,Density,Temp,Mass,Lum,OptD,Kff,KH,Kes,PP,CNO,3a,Deg,Gas,Rad,TotPres
0,0,0,0,0,0,-nan,0,0.03468,3.24968e-05,1.37478e-14,3.29439e-69,0,0,0,0
1,147655,4.42033e+06,618494,20.0991,431971,2.92555,1.56583e+29,0.03468,3.24968e-05,1.37478e-14,3.29439e-69,4.09194e+15,8.96235e+15,9.62739e+10,1.30544e+16
30001,147654,4.42033e+06,1.6701e+19,5.42729e+14,1.29596e+10,2.92555,1.56583e+29,0.03468,3.24968e-05,1.37478e-14,3.29439e-69,4.09194e+15,8.96235e+15,9.62738e+10,1.30544e+16
70001,147654,4.42033e+06,2.12152e+20,6.89426e+15,3.02384e+10,2.92555,1.56582e+29,0.03468,3.24968e-05,1.37478e-14,3.29438e-69,4.09194e+15,8.96234e+15,9.62737e+10,1.30544e+16
150001,147654,4.42032e+06,2.08745e+21,6.78351e+16,6.47961e+10,2.92556,1.5658e+29,0.03468,3.24968e-05,1.37478e-14,3.29439e-69,4.09191e+15,8.96229e+15,9.6273e+10,1.30543e+16
250001,147653,4.4203e+06,9.66401e+21,3.14043e+17,1.07993e+11,2.92559,1.56574e+29,0.03468,3.24968e-05,1.37478e-14,3.29438e-69,4.09186e+15,8.96219e+15,9.62716e+10,1.30541e+16
350001,147651,4.42028e+06,2.65178e+22,8.61708e+17,1.5119e+11,2.92562,1.56565e+29,0.03468,3.24968e-05,1.37478e-14,3.29438e-69,4.09178e+15,8.96204e+15,9.62695e+10,1.30539e+16
450001,147649,4.42024e+06,5.63593e+22,1.83137e+18,1.94387e+11,2.92567,1.56553e+29,0.03468,3.24968e-05,1.37478e-14,3.29438e-69,4.09168e+15,8.96183e+15,9.62666e+10,1.30536e+16
550001,147646,4.4202e+06,1.02899e+23,3.34355e+18,2.37584e+11,2.92572,1.56539e+29,0.03468,3.24968e-05,1.37478e-14,3.29438e-69,4.09155e+15,8.96158e+15,9.6263e+10,1.30532e+16
650001,147643,4.42015e+06,1.69846e+23,5.51868e+18,2.80782e+11,2.92579,1.56521e+29,0.03468,3.24968e-05,1.37478e-14,3.29438e-69,4.0914e+15,8.96128e+15,9.62587e+10,1.30528e+16
750001,147639,4.4201e+06,2.60911e+23,8.47718e+18,3.23979e+11,2.92587,1.56501e+29,0.03468,3.24968e-05,1.37478e-14,3.29438e-69,4.09121e+15,8.96092e+15,9.62536e+10,1.30522e+16
850001,147634,4.42003e+06,3.79803e+23,1.23394e+19,3.67176e+11,2.92596,1.56477e+29,0.03468,3.24968e-05,1.37478e-14,3.29437e-69,4.09101e+15,8.96052e+15,9.62479e+10,1.30516e+16
950001,147629,4.41996e+06,5.30228e+23,1.72255e+19,4.10373e+11,2.92606,1.56451e+29,0.03468,3.24968e-05,1.37478e-14,3.29437e-69,4.09078e+15,8.96006e+15,9.62414e+10,1.30509e+16
1.05e+06,147624,4.41987e+06,7.15896e+23,2.32557e+19,4.53571e+11,2.92618,1.56422e+29,0.03468,3.24968e-05,1.37478e-14,3.29437e-69,4.09052e+15,8.95956e+15,9.62342e+10,1.30502e+16
1.15e+06,147618,4.41978e+06,9.40513e+23,3.05501e+19,4.96768e+11,2.9263,1.56389e+29,0.03468,3.24968e-05,1.37477e-14,3.29436e-69,4.09024e+15,8.959e+15,9.62263e+10,1.30493e+16
1.25e+06,147611,4.41968e+06,1.20778e+24,3.92285e+19,5.39966e+11,2.92644,1.56354e+29,0.03468,3.24968e-05,1.37477e-14,3.29434e-69,4.08993e+15,8.95839e+15,9.62177e+10,1.30484e+16
1.35e+06,147604,4.41958e+06,1.52142e+24,4.94108e+19,5.83163e+11,2.92659,1.56316e+29,0.03468,3.24967e-05,1.37477e-14,3.29433e-69,4.08959e+15,8.95774e+15,9.62084e+10,1.30474e+16
1.45e+06,147596,4.41946e+06,1.88511e+24,6.12167e+19,6.26361e+11,2.92675,1.56275e+29,0.03468,3.24967e-05,1.37477e-14,3.29432e-69,4.08924e+15,8.95703e+15,9.61983e+10,1.30464e+16
1.55e+06,147588,4.41934e+06,2.30257e+24,7.47657e+19,6.69558e+11,2.92692,1.56232e+29,0.03468,3.24967e-05,1.37477e-14,3.29431e-69,4.08885e+15,8.95627e+15,9.61875e+10,1.30452e+16
1.65e+06,147579,4.41921e+06,2.7775e+24,9.01771e+19,7.12756e+11,2.9271,1.56185e+29,0.03468,3.24967e-05,1.37476e-14,3.29428e-69,4.08844e+15,8.95547e+15,9.6176e+10,1.3044e+16
1.75e+06,147569,4.41906e+06,3.3136e+24,1.0757e+20,7.55954e+11,2.9273,1.56135e+29,0.03468,3.24967e-05,1.37475e-14,3.29426e-69,4.088e+15,8.95461e+15,9.61638e+10,1.30427e+16
1.85e+06,147559,4.41892e+06,3.91456e+24,1.27064e+20,7.99152e+11,2.9275,1.56083e+29,0.03468,3.24965e-05,1.37474e-14,3.29416e-69,4.08754e+15,8.9537e+15,9.61509e+10,1.30413e+16
1.95e+06,147549,4.41876e+06,4.58409e+24,1.48777e+20,8.4235e+11,2.92772,1.56027e+29,0.03468,3.24965e-05,1.37472e-14,3.2941e-69,4.08705e+15,8.95274e+15,9.61372e+10,1.30399e+16
2.05e+06,147538,4.41859e+06,5.32588e+24,1.72829e+20,8.85548e+11,2.92795,1.55969e+29,0.03468,3.24965e-05,1.37472e-14,3.2941e-69,4.08654e+15,8.95173e+15,9.61229e+10,1.30384e+16
2.15e+06,147526,4.41842e+06,6.14362e+24,1.99337e+20,9.28747e+11,2.92819,1.55908e+29,0.03468,3.24964e-05,1.37472e-14,3.29405e-69,4.086e+15,8.95068e+15,9.61078e+10,1.30368e+16
2.25e+06,147514,4.41824e+06,7.04101e+24,2.2842e+20,9.71945e+11,2.92844,1.55844e+29,0.03468,3.24963e-05,1.3747e-14,3.29396e-69,4.08544e+15,8.94957e+15,9.6092e+10,1.30351e+16
2.35e+06,147501,4.41805e+06,8.02174e+24,2.60196e+20,1.01514e+12,2.9287,1.55777e+29,0.03468,3.24962e-05,1.37469e-14,3.29391e-69,4.08485e+15,8.94841e+15,9.60755e+10,1.30334e+16
2.45e+06,147488,4.41785e+06,9.08949e+24,2.94783e+20,1.05834e+12,2.92897,1.55707e+29,0.03468,3.2496e-05,1.37465e-14,3.29372e-69,4.08423e+15,8.9472e+15,9.60583e+10,1.30315e+16
2.55e+06,147474,4.41765e+06,1.0248e+25,3.32297e+20,1.10154e+12,2.92926,1.55634e+29,0.03468,3.24957e-05,1.37461e-14,3.29351e-69,4.08359e+15,8.94594e+15,9.60404e+10,1.30296e+16
2.65e+06,147459,4.41743e+06,1.15008e+25,3.72857e+20,1.14474e+12,2.92956,1.55559e+29,0.03468,3.24958e-05,1.37462e-14,3.29356e-69,4.08293e+15,8.94463e+15,9.60217e+10,1.30277e+16
2.75e+06,147444,4.41721e+06,1.28518e+25,4.16579e+20,1.18794e+12,2.92987,1.5548e+29,0.03468,3.24957e-05,1.3746e-14,3.29346e-69,4.08224e+15,8.94327e+15,9.60023e+10,1.30256e+16
2.85e+06,147429,4.41698e+06,1.43045e+25,4.6358e+20,1.23114e+12,2.93019,1.55399e+29,0.03468,3.24955e-05,1.37458e-14,3.29331e-69,4.08152e+15,8.94186e+15,9.59823e+10,1.30235e+16
2.95e+06,147413,4.41674e+06,1.58626e+25,5.13976e+20,1.27434e+12,2.93052,1.55315e+29,0.03468,3.24954e-05,1.37456e-14,3.29323e-69,4.08078e+15,8.9404e+15,9.59615e+10,1.30213e+16
3.05e+06,147396,4.41649e+06,1.75299e+25,5.67883e+20,1.31754e+12,2.93086,1.55228e+29,0.03468,3.24951e-05,1.37451e-14,3.29296e-69,4.08001e+15,8.93889e+15,9.594e+10,1.3019e+16
3.15e+06,147379,4.41624e+06,1.93099e+25,6.25417e+20,1.36074e+12,2.93121,1.55138e+29,0.03468,3.24946e-05,1.37444e-14,3.2926e-69,4.07922e+15,8.93733e+15,9.59178e+10,1.30166e+16
3.25e+06,147361,4.41597e+06,2.12064e+25,6.86694e+20,1.40394e+12,2.93158,1.55045e+29,0.03468,3.24947e-05,1.37446e-14,3.2927e-69,4.0784e+15,8.93572e+15,9.58949e+10,1.30142e+16
3.35e+06,147343,4.4157e+06,2.32231e+25,7.51829e+20,1.44714e+12,2.93196,1.5495e+29,0.03468,3.24946e-05,1.37443e-14,3.29257e-69,4.07755e+15,8.93406e+15,9.58712e+10,1.30117e+16
3.45e+06,147324,4.41542e+06,2.53635e+25,8.20936e+20,1.49034e+12,2.93235,1.54851e+29,0.03468,3.24943e-05,1.3744e-14,3.29237e-69,4.07669e+15,8.93235e+15,9.58469e+10,1.30091e+16
3.55e+06,147305,4.41513e+06,2.76314e+25,8.9413e+20,1.53354e+12,2.93275,1.5475e+29,0.03468,3.24942e-05,1.37437e-14,3.29225e-69,4.07579e+15,8.93059e+15,9.58218e+10,1.30065e+16
3.65e+06,147285,4.41483e+06,3.00304e+25,9.71524e+20,1.57674e+12,2.93316,1.54646e+29,0.03468,3.24937e-05,1.3743e-14,3.2919e-69,4.07487e+15,8.92878e+15,9.57961e+10,1.30038e+16
3.75e+06,147264,4.41453e+06,3.25642e+25,1.05323e+21,1.61994e+12,2.93358,1.54539e+29,0.03468,3.24931e-05,1.37421e-14,3.29141e-69,4.07393e+15,8.92692e+15,9.57696e+10,1.30009e+16
3.85e+06,147243,4.41422e+06,3.52364e+25,1.13937e+21,1.66314e+12,2.93402,1.54429e+29,0.03468,3.24933e-05,1.37424e-14,3.29156e-69,4.07296e+15,8.92502e+15,9.57424e+10,1.29981e+16
3.95e+06,147221,4.41389e+06,3.80506e+25,1.23005e+21,1.70635e+12,2.93446,1.54317e+29,0.03468,3.24931e-05,1.37421e-14,3.29139e-69,4.07196e+15,8.92306e+15,9.57146e+10,1.29951e+16
4.05e+06,147199,4.41356e+06,4.10106e+25,1.32538e+21,1.74955e+12,2.93492,1.54202e+29,0.03468,3.24928e-05,1.37416e-14,3.29113e-69,4.07094e+15,8.92105e+15,9.5686e+10,1.29921e+16
4.15e+06,147177,4.41323e+06,4.412e+25,1.42547e+21,1.79275e+12,2.93539,1.54083e+29,0.03468,3.24926e-05,1.37413e-14,3.29098e-69,4.06989e+15,8.91899e+15,9.56567e+10,1.2989e+16
4.25e+06,147153,4.41288e+06,4.73824e+25,1.53044e+21,1.83595e+12,2.93587,1.53963e+29,0.03468,3.24921e-05,1.37405e-14,3.29054e-69,4.06882e+15,8.91688e+15,9.56267e+10,1.29858e+16
4.35e+06,147130,4.41253e+06,5.08014e+25,1.6404e+21,1.87915e+12,2.93637,1.53839e+29,0.03468,3.24913e-05,1.37393e-14,3.28993e-69,4.06773e+15,8.91472e+15,9.5596e+10,1.29825e+16
4.45e+06,147105,4.41216e+06,5.43807e+25,1.75546e+21,1.92236e+12,2.93687,1.53713e+29,0.03468,3.24915e-05,1.37397e-14,3.29012e-69,4.0666e+15,8.91252e+15,9.55646e+10,1.29792e+16
4.55e+06,147080,4.41179e+06,5.8124e+25,1.87573e+21,1.96556e+12,2.93739,1.53583e+29,0.03468,3.24913e-05,1.37393e-14,3.28992e-69,4.06546e+15,8.91026e+15,9.55325e+10,1.29758e+16
4.65e+06,147055,4.41141e+06,6.20347e+25,2.00131e+21,2.00876e+12,2.93791,1.53451e+29,0.03468,3.24909e-05,1.37387e-14,3.2896e-69,4.06429e+15,8.90795e+15,9.54997e+10,1.29723e+16
4.75e+06,147029,4.41103e+06,6.61166e+25,2.13233e+21,2.05197e+12,2.93845,1.53317e+29,0.03468,3.24907e-05,1.37383e-14,3.28942e-69,4.06309e+15,8.9056e+15,9.54661e+10,1.29688e+16
4.85e+06,147002,4.41063e+06,7.03733e+25,2.26888e+21,2.09517e+12,2.939,1.53179e+29,0.03468,3.249e-05,1.37373e-14,3.28889e-69,4.06187e+15,8.90319e+15,9.54319e+10,1.29652e+16
4.95e+06,146975,4.41023e+06,7.48084e+25,2.41107e+21,2.13838e+12,2.93956,1.53039e+29,0.03468,3.24891e-05,1.37359e-14,3.28815e-69,4.06062e+15,8.90074e+15,9.5397e+10,1.29615e+16
5.05e+06,146948,4.40982e+06,7.94255e+25,2.55902e+21,2.18158e+12,2.94014,1.52896e+29,0.03468,3.24894e-05,1.37364e-14,3.28838e-69,4.05935e+15,8.89824e+15,9.53614e+10,1.29577e+16
5.15e+06,146919,4.4094e+06,8.42282e+25,2.71283e+21,2.22479e+12,2.94072,1.52751e+29,0.03468,3.24891e-05,1.37359e-14,3.28814e-69,4.05805e+15,8.89568e+15,9.53251e+10,1.29538e+16
5.25e+06,146891,4.40897e+06,8.92202e+25,2.87261e+21,2.26799e+12,2.94132,1.52602e+29,0.03468,3.24886e-05,1.37352e-14,3.28777e-69,4.05673e+15,8.89308e+15,9.52881e+10,1.29499e+16
5.35e+06,146862,4.40853e+06,9.44049e+25,3.03846e+21,2.3112e+12,2.94193,1.52451e+29,0.03468,3.24884e-05,1.37348e-14,3.28756e-69,4.05538e+15,8.89043e+15,9.52504e+10,1.29459e+16
5.45e+06,146832,4.40809e+06,9.9786e+25,3.21049e+21,2.3544e+12,2.94255,1.52298e+29,0.03468,3.24876e-05,1.37336e-14,3.28695e-69,4.05401e+15,8.88773e+15,9.5212e+10,1.29418e+16
5.55e+06,146801,4.40764e+06,1.05367e+26,3.38881e+21,2.39761e+12,2.94318,1.52141e+29,0.03468,3.24865e-05,1.3732e-14,3.28608e-69,4.05261e+15,8.88498e+15,9.51729e+10,1.29377e+16
5.65e+06,146770,4.40718e+06,1.11152e+26,3.57351e+21,2.44082e+12,2.94382,1.51982e+29,0.03468,3.24869e-05,1.37325e-14,3.28635e-69,4.05119e+15,8.88218e+15,9.51331e+10,1.29335e+16
5.75e+06,146739,4.40671e+06,1.17144e+26,3.76471e+21,2.48402e+12,2.94448,1.5182e+29,0.03468,3.24865e-05,1.3732e-14,3.28608e-69,4.04974e+15,8.87933e+15,9.50926e+10,1.29292e+16
5.85e+06,146707,4.40623e+06,1.23346e+26,3.9625e+21,2.52723e+12,2.94514,1.51656e+29,0.03468,3.2486e-05,1.37311e-14,3.28565e-69,4.04827e+15,8.87643e+15,9.50515e+10,1.29248e+16
5.95e+06,146674,4.40574e+06,1.29763e+26,4.167e+21,2.57044e+12,2.94582,1.51489e+29,0.03468,3.24857e-05,1.37307e-14,3.28541e-69,4.04678e+15,8.87349e+15,9.50096e+10,1.29204e+16
6.05e+06,146641,4.40525e+06,1.36398e+26,4.37829e+21,2.61365e+12,2.94651,1.51319e+29,0.03468,3.24849e-05,1.37293e-14,3.28471e-69,4.04525e+15,8.87049e+15,9.4967e+10,1.29158e+16
6.15e+06,146608,4.40475e+06,1.43254e+26,4.59649e+21,2.65685e+12,2.94721,1.51147e+29,0.03468,3.24835e-05,1.37275e-14,3.28372e-69,4.04371e+15,8.86745e+15,9.49238e+10,1.29113e+16
6.25e+06,146574,4.40424e+06,1.50336e+26,4.8217e+21,2.70006e+12,2.94793,1.50972e+29,0.03468,3.2484e-05,1.37281e-14,3.28403e-69,4.04214e+15,8.86436e+15,9.48799e+10,1.29066e+16
6.35e+06,146539,4.40372e+06,1.57646e+26,5.05401e+21,2.74327e+12,2.94865,1.50794e+29,0.03468,3.24836e-05,1.37275e-14,3.28372e-69,4.04054e+15,8.86122e+15,9.48352e+10,1.29019e+16
6.45e+06,146504,4.4032e+06,1.65187e+26,5.29352e+21,2.78648e+12,2.94939,1.50614e+29,0.03468,3.2483e-05,1.37265e-14,3.28323e-69,4.03892e+15,8.85803e+15,9.47899e+10,1.2897e+16
6.55e+06,146468,4.40266e+06,1.72965e+26,5.54035e+21,2.82969e+12,2.95013,1.50432e+29,0.03468,3.24827e-05,1.3726e-14,3.28296e-69,4.03728e+15,8.85479e+15,9.47439e+10,1.28922e+16
6.65e+06,146432,4.40212e+06,1.80982e+26,5.79457e+21,2.8729e+12,2.95089,1.50246e+29,0.03468,3.24817e-05,1.37245e-14,3.28218e-69,4.03561e+15,8.8515e+15,9.46973e+10,1.28872e+16
6.75e+06,146395,4.40157e+06,1.89241e+26,6.05629e+21,2.91611e+12,2.95167,1.50058e+29,0.03468,3.24803e-05,1.37224e-14,3.28107e-69,4.03392e+15,8.84816e+15,9.46499e+10,1.28822e+16
6.85e+06,146357,4.40101e+06,1.97747e+26,6.32562e+21,2.95932e+12,2.95245,1.49868e+29,0.03468,3.24807e-05,1.37231e-14,3.28142e-69,4.0322e+15,8.84478e+15,9.46019e+10,1.28771e+16
6.95e+06,146319,4.40044e+06,2.06502e+26,6.60263e+21,3.00254e+12,2.95324,1.49675e+29,0.03468,3.24803e-05,1.37224e-14,3.28107e-69,4.03046e+15,8.84135e+15,9.45532e+10,1.28719e+16
7.05e+06,146281,4.39987e+06,2.15511e+26,6.88744e+21,3.04575e+12,2.95405,1.49479e+29,0.03468,3.24797e-05,1.37214e-14,3.28052e-69,4.02869e+15,8.83787e+15,9.45038e+10,1.28667e+16
7.15e+06,146242,4.39929e+06,2.24776e+26,7.18014e+21,3.08896e+12,2.95487,1.49281e+29,0.03468,3.24793e-05,1.37208e-14,3.28022e-69,4.0269e+15,8.83434e+15,9.44537e+10,1.28613e+16
7.25e+06,146202,4.39869e+06,2.34302e+26,7.48081e+21,3.13217e+12,2.9557,1.49081e+29,0.03468,3.24782e-05,1.37191e-14,3.27935e-69,4.02508e+15,8.83076e+15,9.44029e+10,1.28559e+16
7.35e+06,146162,4.3981e+06,2.44091e+26,7.78956e+21,3.17539e+12,2.95654,1.48878e+29,0.03468,3.24766e-05,1.37168e-14,3.27812e-69,4.02324e+15,8.82714e+15,9.43515e+10,1.28505e+16
7.45e+06,146121,4.39749e+06,2.54148e+26,8.10648e+21,3.2186e+12,2.95739,1.48672e+29,0.03468,3.24771e-05,1.37175e-14,3.27851e-69,4.02138e+15,8.82346e+15,9.42994e+10,1.28449e+16
7.55e+06,146080,4.39687e+06,2.64475e+26,8.43166e+21,3.26182e+12,2.95826,1.48464e+29,0.03468,3.24767e-05,1.37168e-14,3.27813e-69,4.01949e+15,8.81974e+15,9.42466e+10,1.28393e+16
7.65e+06,146039,4.39625e+06,2.75077e+26,8.76519e+21,3.30503e+12,2.95914,1.48253e+29,0.03468,3.2476e-05,1.37156e-14,3.27753e-69,4.01758e+15,8.81597e+15,9.41931e+10,1.28336e+16
7.75e+06,145996,4.39562e+06,2.85957e+26,9.10716e+21,3.34825e+12,2.96003,1.4804e+29,0.03468,3.24755e-05,1.3715e-14,3.2772e-69,4.01564e+15,8.81216e+15,9.4139e+10,1.28279e+16
7.85e+06,145953,4.39498e+06,2.97117e+26,9.45766e+21,3.39146e+12,2.96093,1.47825e+29,0.03468,3.24744e-05,1.37132e-14,3.27624e-69,4.01368e+15,8.80829e+15,9.40842e+10,1.28221e+16
7.95e+06,145910,4.39433e+06,3.08562e+26,9.81679e+21,3.43468e+12,2.96184,1.47607e+29,0.03468,3.24726e-05,1.37106e-14,3.27489e-69,4.01169e+15,8.80438e+15,9.40288e+10,1.28162e+16
8.05e+06,145866,4.39367e+06,3.20295e+26,1.01846e+22,3.4779e+12,2.96276,1.47386e+29,0.03468,3.24732e-05,1.37114e-14,3.27532e-69,4.00968e+15,8.80042e+15,9.39726e+10,1.28102e+16
8.15e+06,145822,4.39301e+06,3.3232e+26,1.05613e+22,3.52111e+12,2.9637,1.47164e+29,0.03468,3.24726e-05,1.37106e-14,3.2749e-69,4.00765e+15,8.79641e+15,9.39158e+10,1.28042e+16
8.25e+06,145777,4.39234e+06,3.4464e+26,1.09468e+22,3.56433e+12,2.96465,1.46939e+29,0.03468,3.24719e-05,1.37094e-14,3.27424e-69,4.00559e+15,8.79235e+15,9.38584e+10,1.2798e+16
8.35e+06,145732,4.39166e+06,3.57258e+26,1.13413e+22,3.60755e+12,2.96561,1.46711e+29,0.03468,3.24714e-05,1.37087e-14,3.27388e-69,4.00351e+15,8.78825e+15,9.38002e+10,1.27919e+16
8.45e+06,145686,4.39097e+06,3.70178e+26,1.17448e+22,3.65077e+12,2.96658,1.46481e+29,0.03468,3.24701e-05,1.37067e-14,3.27283e-69,4.0014e+15,8.7841e+15,9.37414e+10,1.27856e+16
8.55e+06,145639,4.39027e+06,3.83403e+26,1.21575e+22,3.69399e+12,2.96756,1.46249e+29,0.03468,3.24682e-05,1.37039e-14,3.27136e-69,3.99927e+15,8.7799e+15,9.3682e+10,1.27793e+16
8.65e+06,145592,4.38957e+06,3.96937e+26,1.25795e+22,3.73721e+12,2.96856,1.46014e+29,0.03468,3.24688e-05,1.37048e-14,3.27183e-69,3.99712e+15,8.77566e+15,9.36219e+10,1.27729e+16
8.75e+06,145544,4.38886e+06,4.10783e+26,1.30107e+22,3.78043e+12,2.96957,1.45777e+29,0.03468,3.24683e-05,1.37039e-14,3.27137e-69,3.99494e+15,8.77136e+15,9.35611e+10,1.27664e+16
8.85e+06,145496,4.38813e+06,4.24944e+26,1.34513e+22,3.82365e+12,2.97059,1.45538e+29,0.03468,3.24674e-05,1.37025e-14,3.27066e-69,3.99274e+15,8.76702e+15,9.34997e+10,1.27599e+16
8.95e+06,145448,4.38741e+06,4.39425e+26,1.39014e+22,3.86687e+12,2.97162,1.45296e+29,0.03468,3.24669e-05,1.37018e-14,3.27027e-69,3.99052e+15,8.76264e+15,9.34376e+10,1.27532e+16
9.05e+06,145398,4.38667e+06,4.54227e+26,1.43611e+22,3.91009e+12,2.97266,1.45052e+29,0.03468,3.24656e-05,1.36996e-14,3.26914e-69,3.98827e+15,8.7582e+15,9.33748e+10,1.27466e+16
9.15e+06,145349,4.38592e+06,4.69355e+26,1.48304e+22,3.95331e+12,2.97372,1.44806e+29,0.03468,3.24634e-05,1.36966e-14,3.26755e-69,3.986e+15,8.75372e+15,9.33114e+10,1.27398e+16
9.25e+06,145298,4.38517e+06,4.84812e+26,1.53094e+22,3.99654e+12,2.97478,1.44557e+29,0.03468,3.24641e-05,1.36975e-14,3.26805e-69,3.9837e+15,8.7492e+15,9.32474e+10,1.2733e+16
9.35e+06,145248,4.38441e+06,5.00602e+26,1.57981e+22,4.03976e+12,2.97586,1.44307e+29,0.03468,3.24635e-05,1.36966e-14,3.26756e-69,3.98138e+15,8.74462e+15,9.31827e+10,1.27261e+16
9.45e+06,145196,4.38364e+06,5.16727e+26,1.62968e+22,4.08299e+12,2.97695,1.44053e+29,0.03468,3.24626e-05,1.36951e-14,3.26679e-69,3.97904e+15,8.74e+15,9.31173e+10,1.27191e+16
9.55e+06,145145,4.38287e+06,5.33191e+26,1.68054e+22,4.12621e+12,2.97806,1.43798e+29,0.03468,3.24621e-05,1.36943e-14,3.26637e-69,3.97667e+15,8.73533e+15,9.30513e+10,1.27121e+16
9.65e+06,145092,4.38208e+06,5.49998e+26,1.7324e+22,4.16944e+12,2.97917,1.43541e+29,0.03468,3.24606e-05,1.3692e-14,3.26515e-69,3.97428e+15,8.73062e+15,9.29847e+10,1.2705e+16
9.75e+06,145039,4.38129e+06,5.6715e+26,1.78528e+22,4.21266e+12,2.9803,1.43281e+29,0.03468,3.24583e-05,1.36887e-14,3.26344e-69,3.97187e+15,8.72586e+15,9.29174e+10,1.26978e+16
9.85e+06,144986,4.38049e+06,5.84652e+26,1.83917e+22,4.25589e+12,2.98144,1.43019e+29,0.03468,3.24591e-05,1.36898e-14,3.26399e-69,3.96943e+15,8.72105e+15,9.28495e+10,1.26906e+16
9.95e+06,144932,4.37968e+06,6.02505e+26,1.89408e+22,4.29912e+12,2.98259,1.42755e+29,0.03468,3.24584e-05,1.36888e-14,3.26346e-69,3.96697e+15,8.7162e+15,9.27809e+10,1.26833e+16
1.005e+07,144878,4.37886e+06,6.20715e+26,1.95003e+22,4.34234e+12,2.98375,1.42489e+29,0.03468,3.24574e-05,1.36872e-14,3.26263e-69,3.96449e+15,8.7113e+15,9.27117e+10,1.26759e+16
1.015e+07,144823,4.37804e+06,6.39283e+26,2.00701e+22,4.38557e+12,2.98493,1.4222e+29,0.03468,3.24568e-05,1.36863e-14,3.26218e-69,3.96198e+15,8.70636e+15,9.26419e+10,1.26684e+16
1.025e+07,144767,4.3772e+06,6.58214e+26,2.06504e+22,4.4288e+12,2.98612,1.4195e+29,0.03468,3.24553e-05,1.36838e-14,3.26088e-69,3.95945e+15,8.70136e+15,9.25714e+10,1.26609e+16
1.035e+07,144711,4.37636e+06,6.77511e+26,2.12412e+22,4.47203e+12,2.98732,1.41677e+29,0.03468,3.24528e-05,1.36803e-14,3.25905e-69,3.9569e+15,8.69633e+15,9.25003e+10,1.26533e+16
1.045e+07,144655,4.37551e+06,6.97176e+26,2.18427e+22,4.51526e+12,2.98853,1.41402e+29,0.03468,3.24536e-05,1.36814e-14,3.25963e-69,3.95432e+15,8.69124e+15,9.24285e+10,1.26457e+16
1.055e+07,144598,4.37466e+06,7.17213e+26,2.24547e+22,4.55849e+12,2.98975,1.41126e+29,0.03468,3.24529e-05,1.36804e-14,3.25907e-69,3.95173e+15,8.68611e+15,9.23561e+10,1.26379e+16
1.065e+07,144540,4.37379e+06,7.37626e+26,2.30776e+22,4.60173e+12,2.99099,1.40847e+29,0.03468,3.24519e-05,1.36787e-14,3.25819e-69,3.9491e+15,8.68094e+15,9.22831e+10,1.26301e+16
1.075e+07,144482,4.37292e+06,7.58417e+26,2.37112e+22,4.64496e+12,2.99224,1.40566e+29,0.03468,3.24513e-05,1.36777e-14,3.25771e-69,3.94646e+15,8.67572e+15,9.22095e+10,1.26223e+16
1.085e+07,144423,4.37204e+06,7.79591e+26,2.43556e+22,4.68819e+12,2.9935,1.40282e+29,0.03468,3.24496e-05,1.36751e-14,3.25633e-69,3.94379e+15,8.67045e+15,9.21352e+10,1.26143e+16
1.095e+07,144364,4.37115e+06,8.01149e+26,2.5011e+22,4.73143e+12,2.99477,1.39997e+29,0.03468,3.2447e-05,1.36713e-14,3.25438e-69,3.9411e+15,8.66514e+15,9.20603e+10,1.26063e+16
1.105e+07,144305,4.37025e+06,8.23096e+26,2.56774e+22,4.77466e+12,2.99605,1.3971e+29,0.03468,3.24478e-05,1.36725e-14,3.255e-69,3.93839e+15,8.65979e+15,9.19848e+10,1.25983e+16
