X = 0.734
Y = 0.25
Z = 0.016
mu = 0.601142
Radius,Density,Temp,Mass,Lum,OptD,Kff,KH,Kes,PP,CNO,3a,Deg,Gas,Rad,TotPres
0,0,0,0,0,0,-nan,0,0.03468,0.000577364,2.79855e-08,2.96168e-55,0,0,0,0
1,140000,9.19679e+06,586431,338.6,30375,0.216964,1.11384e+32,0.03468,0.000577364,2.79855e-08,2.96168e-55,3.74454e+15,1.76801e+16,1.804e+12,2.14265e+16
30001,140000,9.19679e+06,1.58352e+19,9.14312e+15,9.1128e+08,0.216964,1.11384e+32,0.03468,0.000577364,2.79855e-08,2.96168e-55,3.74454e+15,1.76801e+16,1.804e+12,2.14265e+16
70001,140000,9.19679e+06,2.01154e+20,1.16145e+17,2.12628e+09,0.216964,1.11383e+32,0.03468,0.000577364,2.79855e-08,2.96168e-55,3.74454e+15,1.76801e+16,1.804e+12,2.14264e+16
150001,140000,9.19678e+06,1.97924e+21,1.14279e+18,4.55628e+09,0.216965,1.11382e+32,0.03468,0.000577364,2.79855e-08,2.96168e-55,3.74452e+15,1.768e+16,1.80399e+12,2.14264e+16
250001,139999,9.19676e+06,9.16305e+21,5.29061e+18,7.59378e+09,0.216966,1.1138e+32,0.03468,0.000577364,2.79855e-08,2.96168e-55,3.74449e+15,1.76799e+16,1.80397e+12,2.14262e+16
350001,139998,9.19674e+06,2.51432e+22,1.45172e+19,1.06313e+10,0.216967,1.11377e+32,0.03468,0.000577364,2.79855e-08,2.96168e-55,3.74445e+15,1.76798e+16,1.80395e+12,2.1426e+16
450001,139997,9.1967e+06,5.34381e+22,3.08535e+19,1.36688e+10,0.216969,1.11372e+32,0.03468,0.000577364,2.79855e-08,2.96168e-55,3.7444e+15,1.76795e+16,1.80392e+12,2.14257e+16
550001,139995,9.19665e+06,9.75659e+22,5.63305e+19,1.67063e+10,0.216971,1.11366e+32,0.03468,0.000577364,2.79855e-08,2.96168e-55,3.74433e+15,1.76792e+16,1.80389e+12,2.14254e+16
650001,139993,9.19659e+06,1.61045e+23,9.29784e+19,1.97437e+10,0.216973,1.11359e+32,0.03468,0.000577364,2.79855e-08,2.96168e-55,3.74424e+15,1.76789e+16,1.80384e+12,2.14249e+16
750001,139991,9.19653e+06,2.47392e+23,1.42827e+20,2.27812e+10,0.216976,1.11351e+32,0.03468,0.000577364,2.79855e-08,2.96168e-55,3.74415e+15,1.76785e+16,1.80379e+12,2.14244e+16
850001,139989,9.19645e+06,3.60126e+23,2.07905e+20,2.58187e+10,0.21698,1.11342e+32,0.03468,0.000577364,2.79855e-08,2.96168e-55,3.74403e+15,1.7678e+16,1.80373e+12,2.14239e+16
950001,139986,9.19637e+06,5.02762e+23,2.90241e+20,2.88562e+10,0.216984,1.11332e+32,0.03468,0.000577364,2.79855e-08,2.96168e-55,3.74391e+15,1.76775e+16,1.80366e+12,2.14232e+16
1.05e+06,139983,9.19627e+06,6.78819e+23,3.91862e+20,3.18936e+10,0.216988,1.1132e+32,0.03468,0.000577364,2.79855e-08,2.96167e-55,3.74377e+15,1.76769e+16,1.80359e+12,2.14225e+16
1.15e+06,139979,9.19617e+06,8.91811e+23,5.14795e+20,3.49311e+10,0.216993,1.11308e+32,0.03468,0.000577363,2.79854e-08,2.96167e-55,3.74362e+15,1.76763e+16,1.80351e+12,2.14217e+16
1.25e+06,139976,9.19606e+06,1.14526e+24,6.61065e+20,3.79686e+10,0.216998,1.11294e+32,0.03468,0.000577363,2.79854e-08,2.96166e-55,3.74345e+15,1.76756e+16,1.80342e+12,2.14209e+16
1.35e+06,139972,9.19594e+06,1.44267e+24,8.32696e+20,4.1006e+10,0.217004,1.11279e+32,0.03468,0.000577363,2.79854e-08,2.96165e-55,3.74327e+15,1.76749e+16,1.80332e+12,2.14199e+16
1.45e+06,139967,9.1958e+06,1.78756e+24,1.03171e+21,4.40434e+10,0.21701,1.11263e+32,0.03468,0.000577363,2.79854e-08,2.96165e-55,3.74308e+15,1.76741e+16,1.80322e+12,2.14189e+16
1.55e+06,139963,9.19566e+06,2.18345e+24,1.26013e+21,4.70809e+10,0.217017,1.11246e+32,0.03468,0.000577363,2.79853e-08,2.96165e-55,3.74287e+15,1.76732e+16,1.80311e+12,2.14179e+16
1.65e+06,139958,9.19551e+06,2.63385e+24,1.51998e+21,5.01183e+10,0.217024,1.11227e+32,0.03468,0.000577362,2.79853e-08,2.96163e-55,3.74265e+15,1.76723e+16,1.80299e+12,2.14167e+16
1.75e+06,139952,9.19535e+06,3.14226e+24,1.81326e+21,5.31557e+10,0.217031,1.11208e+32,0.03468,0.000577362,2.79852e-08,2.96162e-55,3.74241e+15,1.76713e+16,1.80287e+12,2.14155e+16
1.85e+06,139947,9.19518e+06,3.71222e+24,2.14201e+21,5.61931e+10,0.217039,1.11187e+32,0.03468,0.000577361,2.7985e-08,2.96157e-55,3.74216e+15,1.76703e+16,1.80273e+12,2.14142e+16
1.95e+06,139941,9.195e+06,4.34721e+24,2.50824e+21,5.92305e+10,0.217048,1.11165e+32,0.03468,0.00057736,2.79849e-08,2.96154e-55,3.7419e+15,1.76692e+16,1.80259e+12,2.14129e+16
2.05e+06,139935,9.19482e+06,5.05076e+24,2.91395e+21,6.22679e+10,0.217056,1.11142e+32,0.03468,0.00057736,2.79849e-08,2.96154e-55,3.74162e+15,1.7668e+16,1.80245e+12,2.14115e+16
2.15e+06,139928,9.19462e+06,5.82638e+24,3.36116e+21,6.53052e+10,0.217066,1.11118e+32,0.03468,0.00057736,2.79848e-08,2.96152e-55,3.74133e+15,1.76668e+16,1.80229e+12,2.141e+16
2.25e+06,139921,9.19441e+06,6.67756e+24,3.85188e+21,6.83426e+10,0.217075,1.11093e+32,0.03468,0.000577359,2.79846e-08,2.96147e-55,3.74102e+15,1.76656e+16,1.80213e+12,2.14084e+16
2.35e+06,139914,9.1942e+06,7.60783e+24,4.38811e+21,7.13799e+10,0.217085,1.11067e+32,0.03468,0.000577358,2.79845e-08,2.96145e-55,3.74071e+15,1.76643e+16,1.80196e+12,2.14068e+16
2.45e+06,139907,9.19397e+06,8.62068e+24,4.97185e+21,7.44173e+10,0.217096,1.11039e+32,0.03468,0.000577356,2.79841e-08,2.96135e-55,3.74037e+15,1.76629e+16,1.80178e+12,2.14051e+16
2.55e+06,139899,9.19374e+06,9.71962e+24,5.60512e+21,7.74546e+10,0.217107,1.11011e+32,0.03468,0.000577353,2.79836e-08,2.96125e-55,3.74003e+15,1.76615e+16,1.8016e+12,2.14033e+16
2.65e+06,139891,9.19349e+06,1.09082e+25,6.28991e+21,8.04919e+10,0.217118,1.10981e+32,0.03468,0.000577353,2.79837e-08,2.96127e-55,3.73967e+15,1.766e+16,1.80141e+12,2.14014e+16
2.75e+06,139882,9.19324e+06,1.21898e+25,7.02821e+21,8.35291e+10,0.21713,1.1095e+32,0.03468,0.000577352,2.79835e-08,2.96122e-55,3.73929e+15,1.76584e+16,1.80121e+12,2.13995e+16
2.85e+06,139874,9.19297e+06,1.3568e+25,7.82202e+21,8.65664e+10,0.217143,1.10918e+32,0.03468,0.000577351,2.79832e-08,2.96115e-55,3.73891e+15,1.76568e+16,1.801e+12,2.13975e+16
2.95e+06,139865,9.1927e+06,1.50464e+25,8.67334e+21,8.96037e+10,0.217155,1.10885e+32,0.03468,0.000577349,2.7983e-08,2.96111e-55,3.73851e+15,1.76552e+16,1.80079e+12,2.13955e+16
3.05e+06,139855,9.19242e+06,1.66283e+25,9.58414e+21,9.26409e+10,0.217168,1.10851e+32,0.03468,0.000577346,2.79824e-08,2.96097e-55,3.73809e+15,1.76534e+16,1.80057e+12,2.13933e+16
3.15e+06,139846,9.19213e+06,1.83173e+25,1.05564e+22,9.56781e+10,0.217182,1.10815e+32,0.03468,0.000577342,2.79817e-08,2.9608e-55,3.73766e+15,1.76517e+16,1.80034e+12,2.13911e+16
3.25e+06,139836,9.19183e+06,2.01169e+25,1.15921e+22,9.87153e+10,0.217196,1.10779e+32,0.03468,0.000577343,2.79819e-08,2.96085e-55,3.73722e+15,1.76498e+16,1.8001e+12,2.13889e+16
3.35e+06,139826,9.19152e+06,2.20306e+25,1.26933e+22,1.01752e+11,0.217211,1.10741e+32,0.03468,0.000577341,2.79816e-08,2.96078e-55,3.73676e+15,1.76479e+16,1.79986e+12,2.13865e+16
3.45e+06,139815,9.1912e+06,2.40619e+25,1.38619e+22,1.0479e+11,0.217226,1.10702e+32,0.03468,0.000577339,2.79812e-08,2.96068e-55,3.73629e+15,1.7646e+16,1.79961e+12,2.13841e+16
3.55e+06,139804,9.19087e+06,2.62142e+25,1.50998e+22,1.07827e+11,0.217241,1.10662e+32,0.03468,0.000577337,2.79809e-08,2.96062e-55,3.73581e+15,1.7644e+16,1.79935e+12,2.13816e+16
3.65e+06,139793,9.19053e+06,2.84912e+25,1.64091e+22,1.10864e+11,0.217257,1.10621e+32,0.03468,0.000577333,2.79802e-08,2.96045e-55,3.73531e+15,1.76419e+16,1.79909e+12,2.13791e+16
3.75e+06,139781,9.19018e+06,3.08961e+25,1.77917e+22,1.13901e+11,0.217273,1.10579e+32,0.03468,0.000577327,2.79791e-08,2.96021e-55,3.7348e+15,1.76398e+16,1.79882e+12,2.13764e+16
3.85e+06,139770,9.18982e+06,3.34326e+25,1.92496e+22,1.16938e+11,0.21729,1.10535e+32,0.03468,0.000577329,2.79794e-08,2.96028e-55,3.73428e+15,1.76377e+16,1.79854e+12,2.13737e+16
3.95e+06,139758,9.18946e+06,3.61041e+25,2.07848e+22,1.19975e+11,0.217307,1.10491e+32,0.03468,0.000577327,2.79791e-08,2.9602e-55,3.73374e+15,1.76354e+16,1.79825e+12,2.1371e+16
4.05e+06,139745,9.18908e+06,3.89142e+25,2.23991e+22,1.23012e+11,0.217325,1.10445e+32,0.03468,0.000577324,2.79785e-08,2.96007e-55,3.73319e+15,1.76331e+16,1.79795e+12,2.13681e+16
4.15e+06,139732,9.1887e+06,4.18662e+25,2.40945e+22,1.26049e+11,0.217343,1.10399e+32,0.03468,0.000577322,2.79782e-08,2.95999e-55,3.73262e+15,1.76308e+16,1.79765e+12,2.13652e+16
4.25e+06,139719,9.1883e+06,4.49636e+25,2.5873e+22,1.29086e+11,0.217361,1.10351e+32,0.03468,0.000577316,2.79773e-08,2.95978e-55,3.73204e+15,1.76284e+16,1.79734e+12,2.13622e+16
4.35e+06,139706,9.1879e+06,4.821e+25,2.77366e+22,1.32123e+11,0.21738,1.10302e+32,0.03468,0.000577308,2.79759e-08,2.95947e-55,3.73145e+15,1.76259e+16,1.79703e+12,2.13592e+16
4.45e+06,139692,9.18749e+06,5.16089e+25,2.96871e+22,1.3516e+11,0.2174,1.10252e+32,0.03468,0.000577311,2.79764e-08,2.95957e-55,3.73084e+15,1.76234e+16,1.79671e+12,2.13561e+16
4.55e+06,139679,9.18706e+06,5.51636e+25,3.17265e+22,1.38197e+11,0.217419,1.10201e+32,0.03468,0.000577308,2.79759e-08,2.95947e-55,3.73022e+15,1.76209e+16,1.79637e+12,2.13529e+16
4.65e+06,139664,9.18663e+06,5.88777e+25,3.38567e+22,1.41234e+11,0.21744,1.10149e+32,0.03468,0.000577305,2.79753e-08,2.95931e-55,3.72959e+15,1.76182e+16,1.79604e+12,2.13496e+16
4.75e+06,139650,9.18619e+06,6.27546e+25,3.60796e+22,1.44271e+11,0.21746,1.10095e+32,0.03468,0.000577302,2.79749e-08,2.95922e-55,3.72894e+15,1.76155e+16,1.79569e+12,2.13463e+16
4.85e+06,139635,9.18574e+06,6.67978e+25,3.83972e+22,1.47307e+11,0.217482,1.10041e+32,0.03468,0.000577296,2.79737e-08,2.95896e-55,3.72828e+15,1.76128e+16,1.79534e+12,2.13429e+16
4.95e+06,139620,9.18528e+06,7.10107e+25,4.08114e+22,1.50344e+11,0.217503,1.09985e+32,0.03468,0.000577286,2.79721e-08,2.95859e-55,3.7276e+15,1.761e+16,1.79498e+12,2.13394e+16
5.05e+06,139604,9.18481e+06,7.53969e+25,4.3324e+22,1.53381e+11,0.217525,1.09928e+32,0.03468,0.000577289,2.79726e-08,2.9587e-55,3.72691e+15,1.76072e+16,1.79461e+12,2.13359e+16
5.15e+06,139588,9.18433e+06,7.99598e+25,4.59371e+22,1.56418e+11,0.217548,1.09871e+32,0.03468,0.000577287,2.79721e-08,2.95859e-55,3.72621e+15,1.76042e+16,1.79424e+12,2.13322e+16
5.25e+06,139572,9.18384e+06,8.47028e+25,4.86524e+22,1.59454e+11,0.217571,1.09812e+32,0.03468,0.000577282,2.79713e-08,2.9584e-55,3.72549e+15,1.76013e+16,1.79386e+12,2.13286e+16
5.35e+06,139556,9.18334e+06,8.96295e+25,5.14719e+22,1.62491e+11,0.217594,1.09752e+32,0.03468,0.000577279,2.79709e-08,2.9583e-55,3.72476e+15,1.75983e+16,1.79347e+12,2.13248e+16
5.45e+06,139539,9.18284e+06,9.47431e+25,5.43974e+22,1.65528e+11,0.217618,1.09691e+32,0.03468,0.000577272,2.79696e-08,2.95799e-55,3.72402e+15,1.75952e+16,1.79307e+12,2.1321e+16
5.55e+06,139522,9.18232e+06,1.00047e+26,5.74309e+22,1.68564e+11,0.217642,1.09628e+32,0.03468,0.00057726,2.79677e-08,2.95756e-55,3.72326e+15,1.7592e+16,1.79267e+12,2.13171e+16
5.65e+06,139505,9.18179e+06,1.05545e+26,6.05743e+22,1.71601e+11,0.217667,1.09565e+32,0.03468,0.000577264,2.79683e-08,2.9577e-55,3.72249e+15,1.75888e+16,1.79226e+12,2.13131e+16
5.75e+06,139487,9.18126e+06,1.11241e+26,6.38293e+22,1.74638e+11,0.217692,1.09501e+32,0.03468,0.000577261,2.79677e-08,2.95756e-55,3.72171e+15,1.75856e+16,1.79184e+12,2.13091e+16
5.85e+06,139469,9.18071e+06,1.17137e+26,6.71978e+22,1.77674e+11,0.217717,1.09435e+32,0.03468,0.000577256,2.79668e-08,2.95735e-55,3.72091e+15,1.75823e+16,1.79141e+12,2.1305e+16
5.95e+06,139451,9.18016e+06,1.23238e+26,7.06818e+22,1.80711e+11,0.217743,1.09369e+32,0.03468,0.000577253,2.79663e-08,2.95723e-55,3.7201e+15,1.75789e+16,1.79098e+12,2.13008e+16
6.05e+06,139432,9.1796e+06,1.29546e+26,7.42831e+22,1.83747e+11,0.21777,1.09301e+32,0.03468,0.000577245,2.79648e-08,2.95688e-55,3.71927e+15,1.75755e+16,1.79054e+12,2.12966e+16
6.15e+06,139414,9.17903e+06,1.36066e+26,7.80035e+22,1.86783e+11,0.217797,1.09232e+32,0.03468,0.000577231,2.79626e-08,2.95639e-55,3.71844e+15,1.7572e+16,1.7901e+12,2.12923e+16
6.25e+06,139394,9.17844e+06,1.428e+26,8.18448e+22,1.8982e+11,0.217824,1.09163e+32,0.03468,0.000577235,2.79633e-08,2.95655e-55,3.71758e+15,1.75685e+16,1.78964e+12,2.12879e+16
6.35e+06,139375,9.17785e+06,1.49752e+26,8.58089e+22,1.92856e+11,0.217852,1.09092e+32,0.03468,0.000577232,2.79627e-08,2.95639e-55,3.71672e+15,1.75649e+16,1.78918e+12,2.12834e+16
6.45e+06,139355,9.17725e+06,1.56926e+26,8.98977e+22,1.95892e+11,0.21788,1.0902e+32,0.03468,0.000577226,2.79616e-08,2.95615e-55,3.71584e+15,1.75613e+16,1.78871e+12,2.12789e+16
6.55e+06,139335,9.17664e+06,1.64324e+26,9.41129e+22,1.98929e+11,0.217909,1.08947e+32,0.03468,0.000577222,2.7961e-08,2.95602e-55,3.71495e+15,1.75576e+16,1.78824e+12,2.12743e+16
6.65e+06,139315,9.17602e+06,1.71951e+26,9.84564e+22,2.01965e+11,0.217938,1.08873e+32,0.03468,0.000577213,2.79594e-08,2.95563e-55,3.71404e+15,1.75538e+16,1.78776e+12,2.12697e+16
6.75e+06,139294,9.17539e+06,1.79809e+26,1.0293e+23,2.05001e+11,0.217968,1.08798e+32,0.03468,0.000577198,2.7957e-08,2.95507e-55,3.71312e+15,1.755e+16,1.78727e+12,2.12649e+16
6.85e+06,139273,9.17476e+06,1.87903e+26,1.07535e+23,2.08037e+11,0.217998,1.08721e+32,0.03468,0.000577203,2.79577e-08,2.95525e-55,3.71219e+15,1.75462e+16,1.78677e+12,2.12601e+16
6.95e+06,139252,9.17411e+06,1.96235e+26,1.12275e+23,2.11073e+11,0.218028,1.08644e+32,0.03468,0.000577199,2.7957e-08,2.95508e-55,3.71124e+15,1.75422e+16,1.78627e+12,2.12553e+16
7.05e+06,139230,9.17345e+06,2.04809e+26,1.17149e+23,2.14109e+11,0.218059,1.08566e+32,0.03468,0.000577193,2.79558e-08,2.95481e-55,3.71028e+15,1.75383e+16,1.78575e+12,2.12503e+16
7.15e+06,139208,9.17279e+06,2.13628e+26,1.22161e+23,2.17146e+11,0.21809,1.08486e+32,0.03468,0.000577189,2.79552e-08,2.95466e-55,3.70931e+15,1.75342e+16,1.78524e+12,2.12453e+16
7.25e+06,139186,9.17211e+06,2.22696e+26,1.27312e+23,2.20181e+11,0.218122,1.08406e+32,0.03468,0.000577178,2.79533e-08,2.95423e-55,3.70832e+15,1.75301e+16,1.78471e+12,2.12403e+16
7.35e+06,139164,9.17143e+06,2.32016e+26,1.32604e+23,2.23217e+11,0.218155,1.08324e+32,0.03468,0.000577161,2.79506e-08,2.95361e-55,3.70732e+15,1.7526e+16,1.78418e+12,2.12351e+16
7.45e+06,139141,9.17073e+06,2.41592e+26,1.38038e+23,2.26253e+11,0.218187,1.08242e+32,0.03468,0.000577167,2.79515e-08,2.95381e-55,3.70631e+15,1.75218e+16,1.78364e+12,2.12299e+16
7.55e+06,139118,9.17003e+06,2.51426e+26,1.43616e+23,2.29289e+11,0.21822,1.08158e+32,0.03468,0.000577162,2.79507e-08,2.95362e-55,3.70528e+15,1.75175e+16,1.78309e+12,2.12246e+16
7.65e+06,139094,9.16932e+06,2.61523e+26,1.49341e+23,2.32325e+11,0.218254,1.08073e+32,0.03468,0.000577156,2.79494e-08,2.95332e-55,3.70424e+15,1.75132e+16,1.78254e+12,2.12193e+16
7.75e+06,139070,9.1686e+06,2.71886e+26,1.55214e+23,2.35361e+11,0.218288,1.07988e+32,0.03468,0.000577151,2.79487e-08,2.95315e-55,3.70319e+15,1.75089e+16,1.78198e+12,2.12138e+16
7.85e+06,139046,9.16787e+06,2.82518e+26,1.61236e+23,2.38397e+11,0.218323,1.07901e+32,0.03468,0.00057714,2.79466e-08,2.95268e-55,3.70212e+15,1.75044e+16,1.78141e+12,2.12084e+16
7.95e+06,139022,9.16713e+06,2.93422e+26,1.67409e+23,2.41432e+11,0.218357,1.07813e+32,0.03468,0.000577121,2.79437e-08,2.952e-55,3.70104e+15,1.75e+16,1.78083e+12,2.12028e+16
8.05e+06,138997,9.16638e+06,3.04602e+26,1.73735e+23,2.44468e+11,0.218393,1.07724e+32,0.03468,0.000577127,2.79446e-08,2.95222e-55,3.69995e+15,1.74954e+16,1.78025e+12,2.11972e+16
8.15e+06,138972,9.16562e+06,3.16061e+26,1.80216e+23,2.47503e+11,0.218429,1.07634e+32,0.03468,0.000577122,2.79437e-08,2.95201e-55,3.69884e+15,1.74908e+16,1.77966e+12,2.11915e+16
8.25e+06,138947,9.16485e+06,3.27803e+26,1.86853e+23,2.50539e+11,0.218465,1.07543e+32,0.03468,0.000577115,2.79423e-08,2.95168e-55,3.69772e+15,1.74862e+16,1.77906e+12,2.11857e+16
8.35e+06,138922,9.16407e+06,3.39831e+26,1.93649e+23,2.53575e+11,0.218502,1.07451e+32,0.03468,0.00057711,2.79415e-08,2.9515e-55,3.69659e+15,1.74815e+16,1.77846e+12,2.11799e+16
8.45e+06,138896,9.16329e+06,3.52148e+26,2.00604e+23,2.5661e+11,0.218539,1.07358e+32,0.03468,0.000577098,2.79393e-08,2.95099e-55,3.69544e+15,1.74768e+16,1.77785e+12,2.1174e+16
8.55e+06,138870,9.16249e+06,3.64757e+26,2.07721e+23,2.59645e+11,0.218577,1.07264e+32,0.03468,0.000577077,2.79361e-08,2.95025e-55,3.69428e+15,1.74719e+16,1.77723e+12,2.1168e+16
8.65e+06,138843,9.16169e+06,3.77663e+26,2.15e+23,2.62681e+11,0.218615,1.07169e+32,0.03468,0.000577084,2.79371e-08,2.95048e-55,3.69311e+15,1.74671e+16,1.77661e+12,2.1162e+16
8.75e+06,138816,9.16087e+06,3.90868e+26,2.22445e+23,2.65716e+11,0.218653,1.07073e+32,0.03468,0.000577079,2.79362e-08,2.95026e-55,3.69192e+15,1.74622e+16,1.77598e+12,2.11559e+16
8.85e+06,138789,9.16005e+06,4.04375e+26,2.30056e+23,2.68751e+11,0.218692,1.06976e+32,0.03468,0.00057707,2.79346e-08,2.9499e-55,3.69072e+15,1.74572e+16,1.77534e+12,2.11497e+16
8.95e+06,138762,9.15921e+06,4.18189e+26,2.37835e+23,2.71787e+11,0.218732,1.06878e+32,0.03468,0.000577065,2.79338e-08,2.94971e-55,3.68951e+15,1.74522e+16,1.77469e+12,2.11434e+16
9.05e+06,138734,9.15837e+06,4.32312e+26,2.45784e+23,2.74822e+11,0.218771,1.06779e+32,0.03468,0.000577052,2.79314e-08,2.94915e-55,3.68829e+15,1.74471e+16,1.77404e+12,2.11371e+16
9.15e+06,138706,9.15752e+06,4.46748e+26,2.53904e+23,2.77857e+11,0.218812,1.06679e+32,0.03468,0.00057703,2.79279e-08,2.94835e-55,3.68705e+15,1.74419e+16,1.77338e+12,2.11308e+16
9.25e+06,138678,9.15666e+06,4.615e+26,2.62197e+23,2.80892e+11,0.218852,1.06578e+32,0.03468,0.000577037,2.7929e-08,2.94861e-55,3.68579e+15,1.74367e+16,1.77271e+12,2.11243e+16
9.35e+06,138649,9.15579e+06,4.76571e+26,2.70665e+23,2.83927e+11,0.218894,1.06476e+32,0.03468,0.000577031,2.7928e-08,2.94836e-55,3.68453e+15,1.74315e+16,1.77204e+12,2.11178e+16
9.45e+06,138621,9.15491e+06,4.91964e+26,2.79309e+23,2.86962e+11,0.218935,1.06373e+32,0.03468,0.000577022,2.79263e-08,2.94798e-55,3.68325e+15,1.74262e+16,1.77136e+12,2.11112e+16
9.55e+06,138591,9.15402e+06,5.07684e+26,2.88131e+23,2.89997e+11,0.218978,1.06269e+32,0.03468,0.000577017,2.79254e-08,2.94777e-55,3.68196e+15,1.74208e+16,1.77067e+12,2.11046e+16
9.65e+06,138562,9.15312e+06,5.23733e+26,2.97132e+23,2.93031e+11,0.21902,1.06164e+32,0.03468,0.000577002,2.79228e-08,2.94717e-55,3.68065e+15,1.74154e+16,1.76998e+12,2.10978e+16
9.75e+06,138532,9.15222e+06,5.40115e+26,3.06314e+23,2.96066e+11,0.219063,1.06058e+32,0.03468,0.000576979,2.79191e-08,2.94631e-55,3.67933e+15,1.74099e+16,1.76928e+12,2.1091e+16
9.85e+06,138502,9.1513e+06,5.56832e+26,3.15679e+23,2.99101e+11,0.219107,1.05951e+32,0.03468,0.000576987,2.79203e-08,2.94658e-55,3.678e+15,1.74044e+16,1.76857e+12,2.10842e+16
9.95e+06,138472,9.15037e+06,5.73889e+26,3.25227e+23,3.02136e+11,0.219151,1.05843e+32,0.03468,0.00057698,2.79191e-08,2.94632e-55,3.67666e+15,1.73988e+16,1.76785e+12,2.10773e+16
1.005e+07,138441,9.14944e+06,5.91288e+26,3.34962e+23,3.0517e+11,0.219195,1.05734e+32,0.03468,0.000576971,2.79174e-08,2.94591e-55,3.6753e+15,1.73932e+16,1.76713e+12,2.10703e+16
1.015e+07,138410,9.1485e+06,6.09033e+26,3.44883e+23,3.08205e+11,0.21924,1.05624e+32,0.03468,0.000576964,2.79164e-08,2.94568e-55,3.67393e+15,1.73875e+16,1.7664e+12,2.10632e+16
1.025e+07,138379,9.14754e+06,6.27127e+26,3.54993e+23,3.11239e+11,0.219285,1.05513e+32,0.03468,0.000576949,2.79136e-08,2.94504e-55,3.67255e+15,1.73818e+16,1.76566e+12,2.10561e+16
1.035e+07,138347,9.14658e+06,6.45573e+26,3.65294e+23,3.14274e+11,0.219331,1.05401e+32,0.03468,0.000576924,2.79096e-08,2.94412e-55,3.67115e+15,1.7376e+16,1.76492e+12,2.10489e+16
1.045e+07,138315,9.14561e+06,6.64375e+26,3.75786e+23,3.17308e+11,0.219377,1.05288e+32,0.03468,0.000576932,2.79109e-08,2.94442e-55,3.66974e+15,1.73702e+16,1.76417e+12,2.10417e+16
1.055e+07,138283,9.14463e+06,6.83536e+26,3.86471e+23,3.20342e+11,0.219424,1.05174e+32,0.03468,0.000576926,2.79097e-08,2.94414e-55,3.66832e+15,1.73642e+16,1.76341e+12,2.10343e+16
1.065e+07,138251,9.14364e+06,7.03059e+26,3.97351e+23,3.23377e+11,0.219471,1.05059e+32,0.03468,0.000576915,2.79078e-08,2.9437e-55,3.66689e+15,1.73583e+16,1.76265e+12,2.10269e+16
1.075e+07,138218,9.14264e+06,7.22947e+26,4.08427e+23,3.26411e+11,0.219518,1.04944e+32,0.03468,0.000576909,2.79067e-08,2.94346e-55,3.66544e+15,1.73523e+16,1.76188e+12,2.10195e+16
1.085e+07,138185,9.14163e+06,7.43204e+26,4.19701e+23,3.29445e+11,0.219566,1.04827e+32,0.03468,0.000576893,2.79038e-08,2.94277e-55,3.66398e+15,1.73462e+16,1.7611e+12,2.1012e+16
1.095e+07,138152,9.14061e+06,7.63833e+26,4.31174e+23,3.32479e+11,0.219615,1.04709e+32,0.03468,0.000576865,2.78995e-08,2.94179e-55,3.6625e+15,1.73401e+16,1.76032e+12,2.10044e+16
