X = 0.734
Y = 0.25
Z = 0.016
mu = 0.601142
Radius,Density,Temp,Mass,Lum,OptD,Kff,KH,Kes,PP,CNO,3a,Deg,Gas,Rad,TotPres
0,0,0,0,0,0,-nan,0,0.03468,0.000749715,2.67702e-07,4.5927e-53,0,0,0,0
1,110000,1.04275e+07,460767,345.567,12988.4,0.118077,3.05748e+32,0.03468,0.000749715,2.67702e-07,4.5927e-53,2.50518e+15,1.57505e+16,2.98138e+12,1.82587e+16
100026,110000,1.04275e+07,4.61129e+20,3.45838e+17,1.29918e+09,0.118077,3.05746e+32,0.03468,0.000749715,2.67702e-07,4.5927e-53,2.50518e+15,1.57505e+16,2.98138e+12,1.82587e+16
200035,110000,1.04275e+07,3.68808e+21,2.76598e+18,2.59815e+09,0.118077,3.05743e+32,0.03468,0.000749715,2.67702e-07,4.5927e-53,2.50517e+15,1.57505e+16,2.98136e+12,1.82586e+16
300073,109999,1.04275e+07,1.24497e+22,9.33695e+18,3.89748e+09,0.118077,3.05737e+32,0.03468,0.000749715,2.67702e-07,4.5927e-53,2.50515e+15,1.57504e+16,2.98134e+12,1.82585e+16
400336,109999,1.04275e+07,2.95632e+22,2.21714e+19,5.19974e+09,0.118078,3.05729e+32,0.03468,0.000749715,2.67702e-07,4.5927e-53,2.50513e+15,1.57502e+16,2.98131e+12,1.82583e+16
500501,109998,1.04274e+07,5.77683e+22,4.33237e+19,6.50072e+09,0.118079,3.05719e+32,0.03468,0.000749715,2.67702e-07,4.5927e-53,2.5051e+15,1.57501e+16,2.98127e+12,1.82581e+16
600545,109997,1.04274e+07,9.97954e+22,7.48411e+19,7.80014e+09,0.11808,3.05706e+32,0.03468,0.000749715,2.67702e-07,4.5927e-53,2.50506e+15,1.57499e+16,2.98122e+12,1.82579e+16
700949,109996,1.04274e+07,1.58683e+23,1.19001e+20,9.10421e+09,0.118081,3.05691e+32,0.03468,0.000749715,2.67702e-07,4.5927e-53,2.50501e+15,1.57496e+16,2.98116e+12,1.82576e+16
801208,109994,1.04273e+07,2.36975e+23,1.77711e+20,1.04064e+10,0.118082,3.05674e+32,0.03468,0.000749715,2.67702e-07,4.5927e-53,2.50496e+15,1.57493e+16,2.9811e+12,1.82573e+16
901557,109993,1.04272e+07,3.37631e+23,2.53189e+20,1.17098e+10,0.118084,3.05655e+32,0.03468,0.000749715,2.67702e-07,4.5927e-53,2.5049e+15,1.5749e+16,2.98102e+12,1.82569e+16
1.00168e+06,109991,1.04272e+07,4.63064e+23,3.47242e+20,1.30102e+10,0.118085,3.05633e+32,0.03468,0.000749715,2.67702e-07,4.5927e-53,2.50484e+15,1.57486e+16,2.98094e+12,1.82565e+16
1.10216e+06,109989,1.04271e+07,6.16864e+23,4.6256e+20,1.43153e+10,0.118087,3.05609e+32,0.03468,0.000749715,2.67702e-07,4.5927e-53,2.50477e+15,1.57482e+16,2.98085e+12,1.8256e+16
1.2028e+06,109987,1.0427e+07,8.01743e+23,6.01173e+20,1.56225e+10,0.118089,3.05582e+32,0.03468,0.000749715,2.67702e-07,4.5927e-53,2.50469e+15,1.57478e+16,2.98074e+12,1.82555e+16
1.30287e+06,109985,1.04269e+07,1.01894e+24,7.6401e+20,1.69222e+10,0.118091,3.05553e+32,0.03468,0.000749715,2.67702e-07,4.5927e-53,2.5046e+15,1.57473e+16,2.98063e+12,1.82549e+16
1.40391e+06,109982,1.04268e+07,1.27483e+24,9.55843e+20,1.82344e+10,0.118094,3.05522e+32,0.03468,0.000749715,2.67702e-07,4.5927e-53,2.50451e+15,1.57468e+16,2.98051e+12,1.82543e+16
1.50489e+06,109980,1.04267e+07,1.57017e+24,1.17723e+21,1.9546e+10,0.118096,3.05488e+32,0.03468,0.000749715,2.67702e-07,4.5927e-53,2.50441e+15,1.57463e+16,2.98038e+12,1.82537e+16
1.60592e+06,109977,1.04265e+07,1.9081e+24,1.43053e+21,2.08583e+10,0.118099,3.05453e+32,0.03468,0.000749715,2.67702e-07,4.5927e-53,2.5043e+15,1.57457e+16,2.98024e+12,1.8253e+16
1.70608e+06,109974,1.04264e+07,2.28779e+24,1.71511e+21,2.21591e+10,0.118102,3.05415e+32,0.03468,0.000749715,2.67702e-07,4.5927e-53,2.50419e+15,1.57451e+16,2.9801e+12,1.82522e+16
1.80708e+06,109971,1.04263e+07,2.71857e+24,2.03796e+21,2.34708e+10,0.118105,3.05374e+32,0.03468,0.000749715,2.67702e-07,4.5927e-53,2.50407e+15,1.57444e+16,2.97994e+12,1.82514e+16
1.90834e+06,109967,1.04261e+07,3.20164e+24,2.39996e+21,2.47861e+10,0.118108,3.05331e+32,0.03468,0.000749715,2.67702e-07,4.5927e-53,2.50394e+15,1.57437e+16,2.97977e+12,1.82506e+16
2.00927e+06,109964,1.0426e+07,3.7369e+24,2.80105e+21,2.6097e+10,0.118111,3.05286e+32,0.03468,0.000749715,2.67702e-07,4.5927e-53,2.5038e+15,1.5743e+16,2.9796e+12,1.82497e+16
2.11081e+06,109960,1.04258e+07,4.33243e+24,3.24725e+21,2.74157e+10,0.118115,3.05238e+32,0.03468,0.000749715,2.67702e-07,4.5927e-53,2.50366e+15,1.57422e+16,2.97941e+12,1.82488e+16
2.21086e+06,109956,1.04257e+07,4.97806e+24,3.73094e+21,2.87152e+10,0.118118,3.05189e+32,0.03468,0.000749715,2.67702e-07,4.5927e-53,2.50351e+15,1.57414e+16,2.97922e+12,1.82479e+16
2.3122e+06,109952,1.04255e+07,5.69433e+24,4.26749e+21,3.00313e+10,0.118122,3.05136e+32,0.03468,0.000749715,2.67702e-07,4.5927e-53,2.50335e+15,1.57405e+16,2.97902e+12,1.82468e+16
2.41277e+06,109948,1.04253e+07,6.47002e+24,4.8485e+21,3.13375e+10,0.118126,3.05082e+32,0.03468,0.000749715,2.67702e-07,4.5927e-53,2.50319e+15,1.57396e+16,2.97881e+12,1.82458e+16
2.51396e+06,109943,1.04251e+07,7.31851e+24,5.48396e+21,3.26518e+10,0.118131,3.05025e+32,0.03468,0.000749715,2.67702e-07,4.5927e-53,2.50302e+15,1.57387e+16,2.97859e+12,1.82447e+16
2.61549e+06,109938,1.04249e+07,8.24126e+24,6.17496e+21,3.39704e+10,0.118135,3.04966e+32,0.03468,0.000749715,2.67702e-07,4.5927e-53,2.50284e+15,1.57377e+16,2.97836e+12,1.82435e+16
2.71705e+06,109933,1.04247e+07,9.23886e+24,6.92192e+21,3.52894e+10,0.11814,3.04904e+32,0.03468,0.000749715,2.67702e-07,4.5927e-53,2.50266e+15,1.57367e+16,2.97812e+12,1.82423e+16
2.81835e+06,109928,1.04245e+07,1.03109e+25,7.72452e+21,3.66051e+10,0.118145,3.0484e+32,0.03468,0.000749715,2.67702e-07,4.5927e-53,2.50246e+15,1.57356e+16,2.97787e+12,1.82411e+16
2.91906e+06,109923,1.04242e+07,1.14559e+25,8.58163e+21,3.7913e+10,0.118149,3.04774e+32,0.03468,0.000749715,2.67702e-07,4.5927e-53,2.50227e+15,1.57346e+16,2.97762e+12,1.82398e+16
3.02112e+06,109918,1.0424e+07,1.26996e+25,9.51247e+21,3.92385e+10,0.118155,3.04705e+32,0.03468,0.000749715,2.67702e-07,4.5927e-53,2.50206e+15,1.57334e+16,2.97735e+12,1.82385e+16
3.12208e+06,109912,1.04238e+07,1.40153e+25,1.04971e+22,4.05496e+10,0.11816,3.04634e+32,0.03468,0.000749715,2.67702e-07,4.5927e-53,2.50185e+15,1.57323e+16,2.97708e+12,1.82371e+16
3.224e+06,109906,1.04235e+07,1.54328e+25,1.15577e+22,4.18733e+10,0.118165,3.0456e+32,0.03468,0.000749715,2.67702e-07,4.5927e-53,2.50163e+15,1.5731e+16,2.97679e+12,1.82357e+16
3.32428e+06,109900,1.04233e+07,1.69176e+25,1.26685e+22,4.31757e+10,0.118171,3.04485e+32,0.03468,0.000749715,2.67702e-07,4.5927e-53,2.5014e+15,1.57298e+16,2.9765e+12,1.82342e+16
3.42513e+06,109894,1.0423e+07,1.85038e+25,1.3855e+22,4.44853e+10,0.118177,3.04408e+32,0.03468,0.000749715,2.67702e-07,4.5927e-53,2.50117e+15,1.57285e+16,2.9762e+12,1.82327e+16
3.5264e+06,109888,1.04227e+07,2.01934e+25,1.51187e+22,4.58005e+10,0.118183,3.04327e+32,0.03468,0.000749715,2.67702e-07,4.5927e-53,2.50093e+15,1.57272e+16,2.97589e+12,1.82311e+16
3.62795e+06,109881,1.04225e+07,2.19879e+25,1.64606e+22,4.71194e+10,0.118189,3.04245e+32,0.03468,0.000749715,2.67702e-07,4.5927e-53,2.50068e+15,1.57259e+16,2.97557e+12,1.82295e+16
3.72964e+06,109875,1.04222e+07,2.38884e+25,1.78814e+22,4.84401e+10,0.118195,3.04159e+32,0.03468,0.000749715,2.67702e-07,4.5927e-53,2.50043e+15,1.57245e+16,2.97524e+12,1.82279e+16
3.83133e+06,109868,1.04219e+07,2.5895e+25,1.93814e+22,4.97606e+10,0.118202,3.04072e+32,0.03468,0.000749715,2.67702e-07,4.5927e-53,2.50016e+15,1.5723e+16,2.9749e+12,1.82262e+16
3.93285e+06,109861,1.04216e+07,2.80074e+25,2.09602e+22,5.1079e+10,0.118209,3.03982e+32,0.03468,0.000749715,2.67702e-07,4.5927e-53,2.49989e+15,1.57216e+16,2.97456e+12,1.82244e+16
4.03404e+06,109853,1.04213e+07,3.02242e+25,2.26167e+22,5.23932e+10,0.118216,3.0389e+32,0.03468,0.000749715,2.67702e-07,4.5927e-53,2.49962e+15,1.572e+16,2.9742e+12,1.82226e+16
4.13476e+06,109846,1.04209e+07,3.25436e+25,2.43495e+22,5.3701e+10,0.118223,3.03797e+32,0.03468,0.000749715,2.67702e-07,4.5927e-53,2.49934e+15,1.57185e+16,2.97384e+12,1.82208e+16
4.23482e+06,109838,1.04206e+07,3.49625e+25,2.61564e+22,5.50005e+10,0.11823,3.03702e+32,0.03468,0.000749715,2.67702e-07,4.5927e-53,2.49905e+15,1.57169e+16,2.97347e+12,1.8219e+16
4.33731e+06,109830,1.04203e+07,3.75613e+25,2.80971e+22,5.63314e+10,0.118237,3.03602e+32,0.03468,0.000749715,2.67702e-07,4.5927e-53,2.49875e+15,1.57153e+16,2.97308e+12,1.8217e+16
4.43896e+06,109822,1.04199e+07,4.02628e+25,3.01143e+22,5.76515e+10,0.118245,3.035e+32,0.03468,0.000749715,2.67702e-07,4.5927e-53,2.49845e+15,1.57136e+16,2.97269e+12,1.8215e+16
4.53961e+06,109814,1.04196e+07,4.30621e+25,3.2204e+22,5.89584e+10,0.118253,3.03398e+32,0.03468,0.000749715,2.67702e-07,4.5927e-53,2.49814e+15,1.57119e+16,2.97229e+12,1.8213e+16
4.64254e+06,109806,1.04192e+07,4.6056e+25,3.44385e+22,6.02951e+10,0.118261,3.0329e+32,0.03468,0.000749715,2.67702e-07,4.5927e-53,2.49781e+15,1.57102e+16,2.97188e+12,1.8211e+16
4.74426e+06,109797,1.04188e+07,4.91479e+25,3.67456e+22,6.1616e+10,0.118269,3.03182e+32,0.03468,0.000749715,2.67702e-07,4.5927e-53,2.49749e+15,1.57084e+16,2.97146e+12,1.82088e+16
4.84459e+06,109789,1.04185e+07,5.23299e+25,3.91194e+22,6.29188e+10,0.118277,3.03073e+32,0.03468,0.000749715,2.67702e-07,4.5927e-53,2.49716e+15,1.57066e+16,2.97103e+12,1.82067e+16
4.94704e+06,109779,1.04181e+07,5.57179e+25,4.16464e+22,6.42492e+10,0.118286,3.02959e+32,0.03468,0.000749715,2.67702e-07,4.5927e-53,2.49682e+15,1.57047e+16,2.97059e+12,1.82045e+16
5.04789e+06,109770,1.04177e+07,5.91925e+25,4.42373e+22,6.55588e+10,0.118294,3.02845e+32,0.03468,0.000749715,2.67702e-07,4.5927e-53,2.49647e+15,1.57028e+16,2.97015e+12,1.82023e+16
5.1508e+06,109761,1.04173e+07,6.28838e+25,4.69892e+22,6.68951e+10,0.118303,3.02726e+32,0.03468,0.000749715,2.67702e-07,4.5927e-53,2.49612e+15,1.57009e+16,2.96968e+12,1.81999e+16
5.25189e+06,109752,1.04169e+07,6.66558e+25,4.98005e+22,6.82077e+10,0.118312,3.02607e+32,0.03468,0.000749715,2.67702e-07,4.5927e-53,2.49576e+15,1.56989e+16,2.96922e+12,1.81976e+16
5.35496e+06,109742,1.04165e+07,7.0654e+25,5.27798e+22,6.95461e+10,0.118322,3.02483e+32,0.03468,0.000749715,2.67702e-07,4.5927e-53,2.49539e+15,1.56969e+16,2.96874e+12,1.81952e+16
5.45598e+06,109732,1.0416e+07,7.47245e+25,5.58121e+22,7.08578e+10,0.118331,3.02359e+32,0.03468,0.000749715,2.67702e-07,4.5927e-53,2.49501e+15,1.56948e+16,2.96826e+12,1.81928e+16
5.5589e+06,109722,1.04156e+07,7.90294e+25,5.90182e+22,7.21942e+10,0.118341,3.02231e+32,0.03468,0.000749715,2.67702e-07,4.5927e-53,2.49463e+15,1.56927e+16,2.96776e+12,1.81903e+16
5.65955e+06,109711,1.04152e+07,8.33953e+25,6.22689e+22,7.3501e+10,0.11835,3.02103e+32,0.03468,0.000749715,2.67702e-07,4.5927e-53,2.49424e+15,1.56906e+16,2.96727e+12,1.81878e+16
5.76201e+06,109701,1.04147e+07,8.80024e+25,6.56983e+22,7.48315e+10,0.11836,3.01971e+32,0.03468,0.000749715,2.67702e-07,4.5927e-53,2.49384e+15,1.56884e+16,2.96675e+12,1.81852e+16
5.86634e+06,109690,1.04143e+07,9.2864e+25,6.93161e+22,7.61861e+10,0.118371,3.01834e+32,0.03468,0.000749715,2.67702e-07,4.5927e-53,2.49343e+15,1.56861e+16,2.96622e+12,1.81825e+16
5.96809e+06,109679,1.04138e+07,9.77749e+25,7.29696e+22,7.75073e+10,0.118381,3.01698e+32,0.03468,0.000749715,2.67702e-07,4.5927e-53,2.49302e+15,1.56839e+16,2.96569e+12,1.81799e+16
6.07162e+06,109668,1.04133e+07,1.02945e+26,7.68152e+22,7.88514e+10,0.118392,3.01557e+32,0.03468,0.000749715,2.67702e-07,4.5927e-53,2.49259e+15,1.56816e+16,2.96514e+12,1.81771e+16
6.17233e+06,109657,1.04128e+07,1.08147e+26,8.06827e+22,8.0159e+10,0.118402,3.01418e+32,0.03468,0.000749715,2.67702e-07,4.5927e-53,2.49217e+15,1.56793e+16,2.9646e+12,1.81744e+16
6.27471e+06,109645,1.04123e+07,1.13611e+26,8.47443e+22,8.14882e+10,0.118413,3.01274e+32,0.03468,0.000749715,2.67702e-07,4.5927e-53,2.49174e+15,1.56769e+16,2.96404e+12,1.81716e+16
6.37879e+06,109634,1.04118e+07,1.19351e+26,8.901e+22,8.28396e+10,0.118424,3.01126e+32,0.03468,0.000749715,2.67702e-07,4.5927e-53,2.49129e+15,1.56744e+16,2.96346e+12,1.81687e+16
6.47976e+06,109622,1.04113e+07,1.25101e+26,9.32813e+22,8.41505e+10,0.118435,3.00979e+32,0.03468,0.000749715,2.67702e-07,4.5927e-53,2.49085e+15,1.5672e+16,2.96289e+12,1.81658e+16
6.58233e+06,109610,1.04108e+07,1.31128e+26,9.77571e+22,8.54822e+10,0.118447,3.00829e+32,0.03468,0.000749715,2.67702e-07,4.5927e-53,2.49039e+15,1.56695e+16,2.9623e+12,1.81629e+16
6.68653e+06,109598,1.04103e+07,1.37445e+26,1.02447e+23,8.6835e+10,0.118459,3.00673e+32,0.03468,0.000749715,2.67702e-07,4.5927e-53,2.48992e+15,1.56669e+16,2.9617e+12,1.81598e+16
6.78731e+06,109585,1.04098e+07,1.43744e+26,1.07122e+23,8.81434e+10,0.11847,3.0052e+32,0.03468,0.000749715,2.67702e-07,4.5927e-53,2.48946e+15,1.56644e+16,2.9611e+12,1.81568e+16
6.88961e+06,109573,1.04092e+07,1.50332e+26,1.1201e+23,8.94715e+10,0.118482,3.00363e+32,0.03468,0.000749715,2.67702e-07,4.5927e-53,2.48899e+15,1.56618e+16,2.96049e+12,1.81537e+16
6.99345e+06,109560,1.04087e+07,1.57221e+26,1.1712e+23,9.08196e+10,0.118495,3.00201e+32,0.03468,0.000749715,2.67702e-07,4.5927e-53,2.4885e+15,1.56591e+16,2.95986e+12,1.81506e+16
7.09356e+06,109547,1.04081e+07,1.64059e+26,1.22189e+23,9.21192e+10,0.118507,3.00042e+32,0.03468,0.000749715,2.67702e-07,4.5927e-53,2.48802e+15,1.56565e+16,2.95924e+12,1.81475e+16
7.19511e+06,109534,1.04076e+07,1.71193e+26,1.27478e+23,9.34375e+10,0.118519,2.9988e+32,0.03468,0.000749715,2.67702e-07,4.5927e-53,2.48752e+15,1.56538e+16,2.9586e+12,1.81443e+16
7.29811e+06,109521,1.0407e+07,1.78638e+26,1.32994e+23,9.47747e+10,0.118532,2.99712e+32,0.03468,0.000749715,2.67702e-07,4.5927e-53,2.48702e+15,1.5651e+16,2.95795e+12,1.8141e+16
7.40259e+06,109507,1.04064e+07,1.86407e+26,1.38749e+23,9.6131e+10,0.118545,2.9954e+32,0.03468,0.000749715,2.67702e-07,4.5927e-53,2.48649e+15,1.56481e+16,2.95728e+12,1.81376e+16
7.50296e+06,109493,1.04058e+07,1.94078e+26,1.44429e+23,9.7434e+10,0.118558,2.99372e+32,0.03468,0.000749715,2.67702e-07,4.5927e-53,2.48599e+15,1.56453e+16,2.95662e+12,1.81343e+16
7.6047e+06,109480,1.04052e+07,2.02065e+26,1.50341e+23,9.87546e+10,0.118571,2.992e+32,0.03468,0.000749715,2.67702e-07,4.5927e-53,2.48546e+15,1.56425e+16,2.95595e+12,1.81309e+16
7.70782e+06,109466,1.04046e+07,2.10381e+26,1.56494e+23,1.00093e+11,0.118585,2.99023e+32,0.03468,0.000749715,2.67702e-07,4.5927e-53,2.48493e+15,1.56395e+16,2.95526e+12,1.81274e+16
7.81234e+06,109451,1.0404e+07,2.19039e+26,1.62897e+23,1.0145e+11,0.118598,2.98842e+32,0.03468,0.000749715,2.67702e-07,4.5927e-53,2.48438e+15,1.56365e+16,2.95455e+12,1.81239e+16
7.91236e+06,109437,1.04034e+07,2.27543e+26,1.69185e+23,1.02748e+11,0.118612,2.98666e+32,0.03468,0.000749715,2.67702e-07,4.5927e-53,2.48384e+15,1.56336e+16,2.95386e+12,1.81204e+16
8.01367e+06,109422,1.04028e+07,2.36377e+26,1.75714e+23,1.04063e+11,0.118626,2.98486e+32,0.03468,0.000749715,2.67702e-07,4.5927e-53,2.4833e+15,1.56306e+16,2.95315e+12,1.81169e+16
8.11629e+06,109408,1.04021e+07,2.45554e+26,1.82494e+23,1.05395e+11,0.11864,2.98301e+32,0.03468,0.000749715,2.67702e-07,4.5927e-53,2.48274e+15,1.56275e+16,2.95243e+12,1.81132e+16
8.22022e+06,109392,1.04015e+07,2.55087e+26,1.89535e+23,1.06744e+11,0.118654,2.98111e+32,0.03468,0.000749715,2.67702e-07,4.5927e-53,2.48216e+15,1.56244e+16,2.95169e+12,1.81095e+16
8.32549e+06,109377,1.04008e+07,2.6499e+26,1.96846e+23,1.08111e+11,0.118669,2.97917e+32,0.03468,0.000749715,2.67702e-07,4.5927e-53,2.48157e+15,1.56211e+16,2.95093e+12,1.81057e+16
8.4258e+06,109362,1.04002e+07,2.74662e+26,2.03984e+23,1.09413e+11,0.118684,2.9773e+32,0.03468,0.000749715,2.67702e-07,4.5927e-53,2.481e+15,1.5618e+16,2.95019e+12,1.8102e+16
8.52733e+06,109346,1.03995e+07,2.84687e+26,2.11379e+23,1.10731e+11,0.118699,2.97538e+32,0.03468,0.000749715,2.67702e-07,4.5927e-53,2.48042e+15,1.56148e+16,2.94944e+12,1.80982e+16
8.63008e+06,109330,1.03988e+07,2.95077e+26,2.1904e+23,1.12064e+11,0.118714,2.97342e+32,0.03468,0.000749715,2.67702e-07,4.5927e-53,2.47982e+15,1.56115e+16,2.94867e+12,1.80943e+16
8.73408e+06,109314,1.03981e+07,3.05847e+26,2.26978e+23,1.13414e+11,0.118729,2.97141e+32,0.03468,0.000749715,2.67702e-07,4.5927e-53,2.47921e+15,1.56082e+16,2.94788e+12,1.80903e+16
8.83935e+06,109298,1.03974e+07,3.1701e+26,2.35203e+23,1.1478e+11,0.118745,2.96936e+32,0.03468,0.000749715,2.67702e-07,4.5927e-53,2.47858e+15,1.56047e+16,2.94707e+12,1.80863e+16
8.94588e+06,109281,1.03967e+07,3.2858e+26,2.43724e+23,1.16163e+11,0.118761,2.96725e+32,0.03468,0.000749715,2.67702e-07,4.5927e-53,2.47794e+15,1.56012e+16,2.94625e+12,1.80821e+16
9.04693e+06,109264,1.0396e+07,3.39811e+26,2.51991e+23,1.17474e+11,0.118777,2.96523e+32,0.03468,0.000749715,2.67702e-07,4.5927e-53,2.47733e+15,1.55979e+16,2.94545e+12,1.80781e+16
9.14913e+06,109248,1.03953e+07,3.51425e+26,2.60537e+23,1.18801e+11,0.118793,2.96317e+32,0.03468,0.000749715,2.67702e-07,4.5927e-53,2.4767e+15,1.55944e+16,2.94464e+12,1.8074e+16
9.25249e+06,109231,1.03945e+07,3.63436e+26,2.69371e+23,1.20142e+11,0.118809,2.96106e+32,0.03468,0.000749715,2.67702e-07,4.5927e-53,2.47605e+15,1.55909e+16,2.94381e+12,1.80699e+16
9.35702e+06,109213,1.03938e+07,3.75858e+26,2.78504e+23,1.21499e+11,0.118826,2.95891e+32,0.03468,0.000749715,2.67702e-07,4.5927e-53,2.4754e+15,1.55873e+16,2.94297e+12,1.80656e+16
9.46274e+06,109196,1.0393e+07,3.88705e+26,2.87944e+23,1.2287e+11,0.118843,2.95671e+32,0.03468,0.000749715,2.67702e-07,4.5927e-53,2.47472e+15,1.55836e+16,2.9421e+12,1.80612e+16
9.56966e+06,109177,1.03922e+07,4.0199e+26,2.97702e+23,1.24258e+11,0.11886,2.95446e+32,0.03468,0.000749715,2.67702e-07,4.5927e-53,2.47403e+15,1.55798e+16,2.94121e+12,1.80568e+16
9.67055e+06,109160,1.03915e+07,4.14799e+26,3.07106e+23,1.25567e+11,0.118877,2.95231e+32,0.03468,0.000749715,2.67702e-07,4.5927e-53,2.47338e+15,1.55762e+16,2.94037e+12,1.80525e+16
9.77251e+06,109142,1.03907e+07,4.28016e+26,3.16805e+23,1.2689e+11,0.118894,2.95013e+32,0.03468,0.000749715,2.67702e-07,4.5927e-53,2.47271e+15,1.55725e+16,2.9395e+12,1.80482e+16
9.87555e+06,109124,1.039e+07,4.41655e+26,3.26809e+23,1.28227e+11,0.118911,2.94789e+32,0.03468,0.000749715,2.67702e-07,4.5927e-53,2.47203e+15,1.55688e+16,2.93862e+12,1.80438e+16
9.97969e+06,109106,1.03892e+07,4.55728e+26,3.37127e+23,1.29579e+11,0.118929,2.94561e+32,0.03468,0.000749715,2.67702e-07,4.5927e-53,2.47133e+15,1.5565e+16,2.93772e+12,1.80392e+16
1.00849e+07,109087,1.03883e+07,4.70249e+26,3.47768e+23,1.30944e+11,0.118947,2.94329e+32,0.03468,0.000749715,2.67702e-07,4.5927e-53,2.47062e+15,1.55611e+16,2.93681e+12,1.80346e+16
1.01913e+07,109068,1.03875e+07,4.85234e+26,3.58743e+23,1.32324e+11,0.118966,2.94091e+32,0.03468,0.000749715,2.67702e-07,4.5927e-53,2.46989e+15,1.55571e+16,2.93587e+12,1.80299e+16
1.02988e+07,109048,1.03867e+07,5.00695e+26,3.70062e+23,1.33719e+11,0.118985,2.93849e+32,0.03468,0.000749715,2.67702e-07,4.5927e-53,2.46915e+15,1.5553e+16,2.93491e+12,1.80251e+16
1.03996e+07,109029,1.03859e+07,5.15493e+26,3.8089e+23,1.35027e+11,0.119003,2.9362e+32,0.03468,0.000749715,2.67702e-07,4.5927e-53,2.46844e+15,1.55491e+16,2.93401e+12,1.80205e+16
1.05014e+07,109010,1.0385e+07,5.30729e+26,3.92032e+23,1.36348e+11,0.119021,2.93386e+32,0.03468,0.000749715,2.67702e-07,4.5927e-53,2.46772e+15,1.55452e+16,2.93308e+12,1.80158e+16
1.06043e+07,108991,1.03842e+07,5.46414e+26,4.03498e+23,1.37683e+11,0.11904,2.93148e+32,0.03468,0.000749715,2.67702e-07,4.5927e-53,2.46699e+15,1.55412e+16,2.93214e+12,1.80111e+16
1.07081e+07,108971,1.03834e+07,5.62564e+26,4.15297e+23,1.3903e+11,0.119059,2.92906e+32,0.03468,0.000749715,2.67702e-07,4.5927e-53,2.46625e+15,1.55371e+16,2.93118e+12,1.80063e+16
1.0813e+07,108951,1.03825e+07,5.7919e+26,4.27439e+23,1.4039e+11,0.119078,2.92658e+32,0.03468,0.000749715,2.67702e-07,4.5927e-53,2.46549e+15,1.55329e+16,2.9302e+12,1.80013e+16
1.09189e+07,108930,1.03816e+07,5.96308e+26,4.39933e+23,1.41764e+11,0.119098,2.92407e+32,0.03468,0.000749715,2.67702e-07,4.5927e-53,2.46471e+15,1.55287e+16,2.9292e+12,1.79963e+16
1.10258e+07,108909,1.03807e+07,6.13932e+26,4.52789e+23,1.43152e+11,0.119118,2.9215e+32,0.03468,0.000749715,2.67702e-07,4.5927e-53,2.46392e+15,1.55243e+16,2.92818e+12,1.79912e+16
1.11338e+07,108888,1.03798e+07,6.32077e+26,4.66018e+23,1.44553e+11,0.119138,2.91889e+32,0.03468,0.000749715,2.67702e-07,4.5927e-53,2.46312e+15,1.55199e+16,2.92715e+12,1.7986e+16
1.12345e+07,108868,1.03789e+07,6.49301e+26,4.78569e+23,1.45859e+11,0.119158,2.91643e+32,0.03468,0.000749715,2.67702e-07,4.5927e-53,2.46236e+15,1.55158e+16,2.92617e+12,1.79811e+16
