X = 0.734
Y = 0.25
Z = 0.016
mu = 0.601142
Radius,Density,Temp,Mass,Lum,OptD,Kff,KH,Kes,PP,CNO,3a,Deg,Gas,Rad,TotPres
0,0,0,0,0,0,-nan,0,0.03468,0.000417206,1.44973e-08,7.27893e-56,0,0,0,0
1,110000,9.00628e+06,460767,192.241,21691.2,0.197193,8.17779e+31,0.03468,0.000417206,1.44973e-08,7.27893e-56,2.50518e+15,1.36038e+16,1.6591e+12,1.61106e+16
100026,110000,9.00628e+06,4.61129e+20,1.92392e+17,2.16969e+09,0.197193,8.17775e+31,0.03468,0.000417206,1.44973e-08,7.27893e-56,2.50518e+15,1.36037e+16,1.6591e+12,1.61106e+16
200035,110000,9.00627e+06,3.68808e+21,1.53873e+18,4.33901e+09,0.197194,8.17765e+31,0.03468,0.000417206,1.44973e-08,7.27893e-56,2.50517e+15,1.36037e+16,1.65909e+12,1.61105e+16
300073,109999,9.00625e+06,1.24497e+22,5.1942e+18,6.50895e+09,0.197194,8.17747e+31,0.03468,0.000417206,1.44973e-08,7.27893e-56,2.50515e+15,1.36036e+16,1.65907e+12,1.61104e+16
400336,109998,9.00622e+06,2.95632e+22,1.23341e+19,8.68378e+09,0.197196,8.17723e+31,0.03468,0.000417206,1.44973e-08,7.27893e-56,2.50512e+15,1.36035e+16,1.65905e+12,1.61102e+16
500501,109997,9.00619e+06,5.77683e+22,2.41012e+19,1.08565e+10,0.197197,8.17692e+31,0.03468,0.000417206,1.44973e-08,7.27893e-56,2.50509e+15,1.36033e+16,1.65903e+12,1.611e+16
600546,109996,9.00614e+06,9.97954e+22,4.16344e+19,1.30266e+10,0.197199,8.17654e+31,0.03468,0.000417206,1.44973e-08,7.27893e-56,2.50504e+15,1.36031e+16,1.659e+12,1.61098e+16
700949,109995,9.0061e+06,1.58683e+23,6.62006e+19,1.52044e+10,0.197201,8.17608e+31,0.03468,0.000417206,1.44973e-08,7.27893e-56,2.50499e+15,1.36029e+16,1.65896e+12,1.61095e+16
801209,109994,9.00604e+06,2.36975e+23,9.8861e+19,1.73792e+10,0.197203,8.17556e+31,0.03468,0.000417206,1.44973e-08,7.27893e-56,2.50494e+15,1.36026e+16,1.65892e+12,1.61092e+16
901558,109992,9.00597e+06,3.37631e+23,1.40849e+20,1.95559e+10,0.197206,8.17497e+31,0.03468,0.000417206,1.44973e-08,7.27893e-56,2.50487e+15,1.36023e+16,1.65887e+12,1.61088e+16
1.00168e+06,109990,9.0059e+06,4.63064e+23,1.9317e+20,2.17276e+10,0.197209,8.17431e+31,0.03468,0.000417206,1.44973e-08,7.27893e-56,2.5048e+15,1.36019e+16,1.65882e+12,1.61084e+16
1.10216e+06,109988,9.00582e+06,6.16864e+23,2.5732e+20,2.39072e+10,0.197213,8.17358e+31,0.03468,0.000417206,1.44973e-08,7.27893e-56,2.50472e+15,1.36015e+16,1.65876e+12,1.61079e+16
1.20281e+06,109985,9.00573e+06,8.01743e+23,3.34428e+20,2.60903e+10,0.197217,8.17277e+31,0.03468,0.000417206,1.44973e-08,7.27893e-56,2.50463e+15,1.36011e+16,1.6587e+12,1.61074e+16
1.30288e+06,109983,9.00564e+06,1.01894e+24,4.25012e+20,2.82608e+10,0.197221,8.1719e+31,0.03468,0.000417206,1.44973e-08,7.27893e-56,2.50453e+15,1.36007e+16,1.65863e+12,1.61068e+16
1.40391e+06,109980,9.00554e+06,1.27483e+24,5.31724e+20,3.04524e+10,0.197225,8.17096e+31,0.03468,0.000417206,1.44973e-08,7.27893e-56,2.50443e+15,1.36002e+16,1.65855e+12,1.61062e+16
1.5049e+06,109977,9.00542e+06,1.57017e+24,6.54875e+20,3.26428e+10,0.19723,8.16994e+31,0.03468,0.000417206,1.44973e-08,7.27893e-56,2.50431e+15,1.35996e+16,1.65847e+12,1.61056e+16
1.60593e+06,109974,9.00531e+06,1.9081e+24,7.95777e+20,3.48343e+10,0.197235,8.16885e+31,0.03468,0.000417206,1.44973e-08,7.27893e-56,2.50419e+15,1.35991e+16,1.65838e+12,1.61049e+16
1.70609e+06,109971,9.00518e+06,2.28779e+24,9.5408e+20,3.70068e+10,0.19724,8.1677e+31,0.03468,0.000417206,1.44973e-08,7.27893e-56,2.50407e+15,1.35984e+16,1.65829e+12,1.61042e+16
1.80709e+06,109967,9.00505e+06,2.71857e+24,1.13367e+21,3.91975e+10,0.197246,8.16647e+31,0.03468,0.000417206,1.44973e-08,7.27893e-56,2.50393e+15,1.35978e+16,1.65819e+12,1.61034e+16
1.90836e+06,109963,9.0049e+06,3.20164e+24,1.33503e+21,4.13941e+10,0.197252,8.16517e+31,0.03468,0.000417206,1.44973e-08,7.27893e-56,2.50378e+15,1.35971e+16,1.65808e+12,1.61026e+16
2.00929e+06,109959,9.00475e+06,3.7369e+24,1.55813e+21,4.35834e+10,0.197259,8.1638e+31,0.03468,0.000417206,1.44973e-08,7.27893e-56,2.50363e+15,1.35964e+16,1.65797e+12,1.61017e+16
2.11083e+06,109955,9.0046e+06,4.33243e+24,1.80633e+21,4.57858e+10,0.197266,8.16236e+31,0.03468,0.000417206,1.44973e-08,7.27893e-56,2.50347e+15,1.35956e+16,1.65786e+12,1.61008e+16
2.21088e+06,109951,9.00443e+06,4.97806e+24,2.07537e+21,4.7956e+10,0.197273,8.16086e+31,0.03468,0.000417206,1.44973e-08,7.27893e-56,2.50331e+15,1.35948e+16,1.65774e+12,1.60998e+16
2.31222e+06,109946,9.00426e+06,5.69433e+24,2.37381e+21,5.01541e+10,0.19728,8.15928e+31,0.03468,0.000417206,1.44973e-08,7.27893e-56,2.50313e+15,1.3594e+16,1.65761e+12,1.60988e+16
2.4128e+06,109941,9.00408e+06,6.47002e+24,2.69698e+21,5.23356e+10,0.197288,8.15763e+31,0.03468,0.000417206,1.44973e-08,7.27893e-56,2.50295e+15,1.35931e+16,1.65748e+12,1.60978e+16
2.51399e+06,109936,9.00389e+06,7.31851e+24,3.05042e+21,5.45306e+10,0.197296,8.15591e+31,0.03468,0.000417206,1.44973e-08,7.27893e-56,2.50276e+15,1.35922e+16,1.65734e+12,1.60967e+16
2.61552e+06,109931,9.00369e+06,8.24126e+24,3.43476e+21,5.67327e+10,0.197304,8.15411e+31,0.03468,0.000417206,1.44973e-08,7.27893e-56,2.50256e+15,1.35913e+16,1.65719e+12,1.60955e+16
2.71709e+06,109925,9.00349e+06,9.23886e+24,3.85021e+21,5.89358e+10,0.197313,8.15224e+31,0.03468,0.000417206,1.44973e-08,7.27893e-56,2.50235e+15,1.35903e+16,1.65704e+12,1.60943e+16
2.8184e+06,109920,9.00328e+06,1.03109e+25,4.2966e+21,6.1133e+10,0.197322,8.1503e+31,0.03468,0.000417206,1.44973e-08,7.27893e-56,2.50213e+15,1.35893e+16,1.65689e+12,1.60931e+16
2.91911e+06,109914,9.00306e+06,1.14559e+25,4.7733e+21,6.33175e+10,0.197332,8.1483e+31,0.03468,0.000417206,1.44973e-08,7.27893e-56,2.50191e+15,1.35882e+16,1.65673e+12,1.60918e+16
3.02117e+06,109908,9.00283e+06,1.26996e+25,5.291e+21,6.55311e+10,0.197342,8.14621e+31,0.03468,0.000417206,1.44973e-08,7.27893e-56,2.50168e+15,1.35871e+16,1.65656e+12,1.60905e+16
3.12214e+06,109901,9.0026e+06,1.40153e+25,5.83861e+21,6.77209e+10,0.197352,8.14407e+31,0.03468,0.000417206,1.44973e-08,7.27893e-56,2.50144e+15,1.3586e+16,1.65638e+12,1.60891e+16
3.22407e+06,109895,9.00235e+06,1.54328e+25,6.42845e+21,6.99317e+10,0.197362,8.14184e+31,0.03468,0.000417206,1.44973e-08,7.27893e-56,2.50119e+15,1.35848e+16,1.6562e+12,1.60877e+16
3.32436e+06,109888,9.0021e+06,1.69176e+25,7.04622e+21,7.21069e+10,0.197373,8.13957e+31,0.03468,0.000417206,1.44973e-08,7.27893e-56,2.50094e+15,1.35836e+16,1.65602e+12,1.60862e+16
3.42521e+06,109881,9.00185e+06,1.85038e+25,7.70604e+21,7.42942e+10,0.197384,8.13722e+31,0.03468,0.000417206,1.44973e-08,7.27893e-56,2.50068e+15,1.35824e+16,1.65583e+12,1.60847e+16
3.52648e+06,109874,9.00158e+06,2.01934e+25,8.40877e+21,7.64908e+10,0.197396,8.13479e+31,0.03468,0.000417206,1.44973e-08,7.27893e-56,2.50041e+15,1.35811e+16,1.65564e+12,1.60832e+16
3.62805e+06,109867,9.00131e+06,2.19879e+25,9.155e+21,7.86935e+10,0.197407,8.13229e+31,0.03468,0.000417206,1.44973e-08,7.27893e-56,2.50013e+15,1.35798e+16,1.65543e+12,1.60816e+16
3.72975e+06,109859,9.00102e+06,2.38884e+25,9.94512e+21,8.08993e+10,0.19742,8.12971e+31,0.03468,0.000417206,1.44973e-08,7.27893e-56,2.49985e+15,1.35784e+16,1.65523e+12,1.60799e+16
3.83144e+06,109852,9.00073e+06,2.5895e+25,1.07792e+22,8.31048e+10,0.197432,8.12706e+31,0.03468,0.000417206,1.44973e-08,7.27893e-56,2.49955e+15,1.3577e+16,1.65501e+12,1.60782e+16
3.93297e+06,109844,9.00043e+06,2.80074e+25,1.16571e+22,8.53068e+10,0.197445,8.12435e+31,0.03468,0.000417206,1.44973e-08,7.27893e-56,2.49925e+15,1.35756e+16,1.65479e+12,1.60765e+16
4.03417e+06,109835,9.00013e+06,3.02242e+25,1.25782e+22,8.75018e+10,0.197458,8.12157e+31,0.03468,0.000417206,1.44973e-08,7.27893e-56,2.49894e+15,1.35741e+16,1.65457e+12,1.60747e+16
4.1349e+06,109827,8.99982e+06,3.25436e+25,1.35417e+22,8.96862e+10,0.197472,8.11874e+31,0.03468,0.000417206,1.44973e-08,7.27893e-56,2.49863e+15,1.35726e+16,1.65434e+12,1.60729e+16
4.23497e+06,109819,8.9995e+06,3.49625e+25,1.45464e+22,9.18566e+10,0.197485,8.11586e+31,0.03468,0.000417206,1.44973e-08,7.27893e-56,2.49831e+15,1.35711e+16,1.65411e+12,1.60711e+16
4.33747e+06,109810,8.99917e+06,3.75613e+25,1.56254e+22,9.40795e+10,0.1975,8.11284e+31,0.03468,0.000417206,1.44973e-08,7.27893e-56,2.49797e+15,1.35695e+16,1.65386e+12,1.60691e+16
4.43914e+06,109801,8.99883e+06,4.02628e+25,1.6747e+22,9.62844e+10,0.197514,8.10977e+31,0.03468,0.000417206,1.44973e-08,7.27893e-56,2.49763e+15,1.35679e+16,1.65362e+12,1.60672e+16
4.53979e+06,109792,8.99849e+06,4.30621e+25,1.79088e+22,9.84673e+10,0.197529,8.10666e+31,0.03468,0.000417206,1.44973e-08,7.27893e-56,2.49728e+15,1.35662e+16,1.65337e+12,1.60652e+16
4.64274e+06,109782,8.99813e+06,4.6056e+25,1.91511e+22,1.007e+11,0.197544,8.10342e+31,0.03468,0.000417206,1.44973e-08,7.27893e-56,2.49692e+15,1.35645e+16,1.6531e+12,1.60631e+16
4.74447e+06,109773,8.99777e+06,4.91479e+25,2.04337e+22,1.02906e+11,0.19756,8.10014e+31,0.03468,0.000417206,1.44973e-08,7.27893e-56,2.49655e+15,1.35628e+16,1.65284e+12,1.6061e+16
4.84481e+06,109763,8.99741e+06,5.23299e+25,2.17534e+22,1.05082e+11,0.197576,8.09684e+31,0.03468,0.000417206,1.44973e-08,7.27893e-56,2.49619e+15,1.3561e+16,1.65257e+12,1.60589e+16
4.94728e+06,109753,8.99703e+06,5.57179e+25,2.31581e+22,1.07304e+11,0.197592,8.09339e+31,0.03468,0.000417206,1.44973e-08,7.27893e-56,2.4958e+15,1.35592e+16,1.65229e+12,1.60567e+16
5.04815e+06,109743,8.99665e+06,5.91925e+25,2.45984e+22,1.09492e+11,0.197608,8.08994e+31,0.03468,0.000417206,1.44973e-08,7.27893e-56,2.49542e+15,1.35574e+16,1.65201e+12,1.60545e+16
5.15107e+06,109732,8.99625e+06,6.28838e+25,2.61281e+22,1.11724e+11,0.197625,8.08634e+31,0.03468,0.000417206,1.44973e-08,7.27893e-56,2.49502e+15,1.35555e+16,1.65172e+12,1.60522e+16
5.25217e+06,109721,8.99586e+06,6.66558e+25,2.76909e+22,1.13916e+11,0.197643,8.08274e+31,0.03468,0.000417206,1.44973e-08,7.27893e-56,2.49461e+15,1.35536e+16,1.65143e+12,1.60498e+16
5.35526e+06,109710,8.99544e+06,7.0654e+25,2.93469e+22,1.16152e+11,0.19766,8.07899e+31,0.03468,0.000417206,1.44973e-08,7.27893e-56,2.4942e+15,1.35516e+16,1.65113e+12,1.60474e+16
5.4563e+06,109699,8.99503e+06,7.47245e+25,3.10323e+22,1.18343e+11,0.197678,8.07525e+31,0.03468,0.000417206,1.44973e-08,7.27893e-56,2.49378e+15,1.35496e+16,1.65082e+12,1.6045e+16
5.55925e+06,109688,8.9946e+06,7.90294e+25,3.28143e+22,1.20575e+11,0.197697,8.07137e+31,0.03468,0.000417206,1.44973e-08,7.27893e-56,2.49334e+15,1.35476e+16,1.65051e+12,1.60426e+16
5.65991e+06,109676,8.99418e+06,8.33953e+25,3.4621e+22,1.22758e+11,0.197715,8.06751e+31,0.03468,0.000417206,1.44973e-08,7.27893e-56,2.49291e+15,1.35455e+16,1.6502e+12,1.60401e+16
5.76239e+06,109665,8.99374e+06,8.80024e+25,3.65269e+22,1.2498e+11,0.197734,8.06351e+31,0.03468,0.000417206,1.44973e-08,7.27893e-56,2.49247e+15,1.35434e+16,1.64987e+12,1.60375e+16
5.86674e+06,109652,8.99328e+06,9.2864e+25,3.85376e+22,1.27243e+11,0.197754,8.05937e+31,0.03468,0.000417206,1.44973e-08,7.27893e-56,2.492e+15,1.35412e+16,1.64954e+12,1.60348e+16
5.96852e+06,109640,8.99282e+06,9.77749e+25,4.05679e+22,1.2945e+11,0.197774,8.05525e+31,0.03468,0.000417206,1.44973e-08,7.27893e-56,2.49154e+15,1.3539e+16,1.6492e+12,1.60322e+16
6.07207e+06,109628,8.99235e+06,1.02945e+26,4.2705e+22,1.31695e+11,0.197794,8.051e+31,0.03468,0.000417206,1.44973e-08,7.27893e-56,2.49107e+15,1.35367e+16,1.64886e+12,1.60295e+16
6.1728e+06,109615,8.99189e+06,1.08147e+26,4.48541e+22,1.3388e+11,0.197814,8.04679e+31,0.03468,0.000417206,1.44973e-08,7.27893e-56,2.4906e+15,1.35345e+16,1.64852e+12,1.60267e+16
6.2752e+06,109602,8.99141e+06,1.13611e+26,4.7111e+22,1.361e+11,0.197835,8.04245e+31,0.03468,0.000417206,1.44973e-08,7.27893e-56,2.49011e+15,1.35322e+16,1.64816e+12,1.60239e+16
6.37931e+06,109589,8.99091e+06,1.19352e+26,4.94812e+22,1.38358e+11,0.197857,8.03796e+31,0.03468,0.000417206,1.44973e-08,7.27893e-56,2.48961e+15,1.35298e+16,1.6478e+12,1.60211e+16
6.48031e+06,109576,8.99042e+06,1.25101e+26,5.18545e+22,1.40547e+11,0.197878,8.03354e+31,0.03468,0.000417206,1.44973e-08,7.27893e-56,2.48911e+15,1.35275e+16,1.64744e+12,1.60182e+16
6.5829e+06,109563,8.98991e+06,1.31128e+26,5.43412e+22,1.42772e+11,0.1979,8.02898e+31,0.03468,0.000417206,1.44973e-08,7.27893e-56,2.4886e+15,1.3525e+16,1.64707e+12,1.60153e+16
6.68713e+06,109549,8.98939e+06,1.37445e+26,5.69469e+22,1.45032e+11,0.197922,8.02427e+31,0.03468,0.000417206,1.44973e-08,7.27893e-56,2.48807e+15,1.35225e+16,1.64669e+12,1.60122e+16
6.78793e+06,109535,8.98888e+06,1.43744e+26,5.95441e+22,1.47217e+11,0.197944,8.01966e+31,0.03468,0.000417206,1.44973e-08,7.27893e-56,2.48755e+15,1.35201e+16,1.64631e+12,1.60093e+16
6.89026e+06,109521,8.98835e+06,1.50332e+26,6.22594e+22,1.49436e+11,0.197967,8.0149e+31,0.03468,0.000417206,1.44973e-08,7.27893e-56,2.48702e+15,1.35175e+16,1.64593e+12,1.60062e+16
6.99414e+06,109506,8.98781e+06,1.57221e+26,6.50981e+22,1.51688e+11,0.197991,8.01001e+31,0.03468,0.000417206,1.44973e-08,7.27893e-56,2.48647e+15,1.35149e+16,1.64553e+12,1.6003e+16
7.09427e+06,109492,8.98727e+06,1.64059e+26,6.79143e+22,1.53859e+11,0.198014,8.00522e+31,0.03468,0.000417206,1.44973e-08,7.27893e-56,2.48593e+15,1.35124e+16,1.64514e+12,1.59999e+16
7.19585e+06,109477,8.98673e+06,1.71193e+26,7.08518e+22,1.56062e+11,0.198038,8.0003e+31,0.03468,0.000417206,1.44973e-08,7.27893e-56,2.48538e+15,1.35097e+16,1.64474e+12,1.59968e+16
7.29889e+06,109462,8.98616e+06,1.78638e+26,7.39159e+22,1.58295e+11,0.198062,7.99524e+31,0.03468,0.000417206,1.44973e-08,7.27893e-56,2.48481e+15,1.3507e+16,1.64432e+12,1.59935e+16
7.4034e+06,109447,8.98558e+06,1.86407e+26,7.71119e+22,1.60561e+11,0.198087,7.99004e+31,0.03468,0.000417206,1.44973e-08,7.27893e-56,2.48423e+15,1.35043e+16,1.6439e+12,1.59901e+16
7.50381e+06,109432,8.98502e+06,1.94079e+26,8.02667e+22,1.62738e+11,0.198112,7.98497e+31,0.03468,0.000417206,1.44973e-08,7.27893e-56,2.48366e+15,1.35016e+16,1.64349e+12,1.59869e+16
7.60558e+06,109416,8.98444e+06,2.02066e+26,8.355e+22,1.64944e+11,0.198137,7.97977e+31,0.03468,0.000417206,1.44973e-08,7.27893e-56,2.48307e+15,1.34988e+16,1.64306e+12,1.59835e+16
7.70873e+06,109401,8.98384e+06,2.10381e+26,8.6967e+22,1.67181e+11,0.198163,7.97443e+31,0.03468,0.000417206,1.44973e-08,7.27893e-56,2.48247e+15,1.34959e+16,1.64263e+12,1.598e+16
7.81329e+06,109384,8.98323e+06,2.19039e+26,9.05231e+22,1.69448e+11,0.198189,7.96895e+31,0.03468,0.000417206,1.44973e-08,7.27893e-56,2.48186e+15,1.3493e+16,1.64218e+12,1.59765e+16
7.91336e+06,109368,8.98264e+06,2.27543e+26,9.40145e+22,1.71617e+11,0.198215,7.96364e+31,0.03468,0.000417206,1.44973e-08,7.27893e-56,2.48126e+15,1.34901e+16,1.64175e+12,1.5973e+16
8.0147e+06,109352,8.98203e+06,2.36377e+26,9.764e+22,1.73814e+11,0.198241,7.9582e+31,0.03468,0.000417206,1.44973e-08,7.27893e-56,2.48064e+15,1.34872e+16,1.6413e+12,1.59695e+16
8.11736e+06,109336,8.98141e+06,2.45554e+26,1.01405e+23,1.76039e+11,0.198268,7.95262e+31,0.03468,0.000417206,1.44973e-08,7.27893e-56,2.48001e+15,1.34842e+16,1.64085e+12,1.59659e+16
8.22133e+06,109319,8.98077e+06,2.55087e+26,1.05314e+23,1.78293e+11,0.198296,7.9469e+31,0.03468,0.000417206,1.44973e-08,7.27893e-56,2.47937e+15,1.34812e+16,1.64038e+12,1.59622e+16
8.32664e+06,109301,8.98011e+06,2.6499e+26,1.09373e+23,1.80576e+11,0.198325,7.94103e+31,0.03468,0.000417206,1.44973e-08,7.27893e-56,2.47871e+15,1.3478e+16,1.6399e+12,1.59584e+16
8.427e+06,109284,8.97948e+06,2.74662e+26,1.13335e+23,1.82751e+11,0.198352,7.93538e+31,0.03468,0.000417206,1.44973e-08,7.27893e-56,2.47807e+15,1.3475e+16,1.63944e+12,1.59547e+16
8.52857e+06,109267,8.97883e+06,2.84687e+26,1.1744e+23,1.84953e+11,0.19838,7.9296e+31,0.03468,0.000417206,1.44973e-08,7.27893e-56,2.47741e+15,1.34719e+16,1.63896e+12,1.59509e+16
8.63137e+06,109249,8.97816e+06,2.95077e+26,1.21693e+23,1.87181e+11,0.198409,7.92367e+31,0.03468,0.000417206,1.44973e-08,7.27893e-56,2.47675e+15,1.34687e+16,1.63848e+12,1.59471e+16
8.73542e+06,109231,8.97748e+06,3.05847e+26,1.26099e+23,1.89437e+11,0.198439,7.91761e+31,0.03468,0.000417206,1.44973e-08,7.27893e-56,2.47606e+15,1.34654e+16,1.63798e+12,1.59431e+16
8.84073e+06,109212,8.97679e+06,3.1701e+26,1.30664e+23,1.91719e+11,0.198469,7.91141e+31,0.03468,0.000417206,1.44973e-08,7.27893e-56,2.47536e+15,1.34621e+16,1.63747e+12,1.59391e+16
8.94731e+06,109193,8.97607e+06,3.28581e+26,1.35393e+23,1.9403e+11,0.1985,7.90506e+31,0.03468,0.000417206,1.44973e-08,7.27893e-56,2.47464e+15,1.34587e+16,1.63695e+12,1.5935e+16
9.04841e+06,109175,8.97539e+06,3.39811e+26,1.39981e+23,1.96221e+11,0.19853,7.89897e+31,0.03468,0.000417206,1.44973e-08,7.27893e-56,2.47395e+15,1.34554e+16,1.63645e+12,1.5931e+16
9.15066e+06,109156,8.97469e+06,3.51425e+26,1.44724e+23,1.98437e+11,0.198561,7.89274e+31,0.03468,0.000417206,1.44973e-08,7.27893e-56,2.47324e+15,1.34521e+16,1.63594e+12,1.59269e+16
9.25407e+06,109137,8.97397e+06,3.63437e+26,1.49626e+23,2.00678e+11,0.198592,7.88638e+31,0.03468,0.000417206,1.44973e-08,7.27893e-56,2.47252e+15,1.34486e+16,1.63542e+12,1.59228e+16
9.35866e+06,109118,8.97324e+06,3.75859e+26,1.54694e+23,2.02945e+11,0.198624,7.87989e+31,0.03468,0.000417206,1.44973e-08,7.27893e-56,2.47179e+15,1.34451e+16,1.63488e+12,1.59186e+16
9.46443e+06,109098,8.97249e+06,3.88705e+26,1.59931e+23,2.05238e+11,0.198656,7.87324e+31,0.03468,0.000417206,1.44973e-08,7.27893e-56,2.47103e+15,1.34416e+16,1.63434e+12,1.59142e+16
9.57141e+06,109077,8.97172e+06,4.0199e+26,1.65345e+23,2.07556e+11,0.19869,7.86646e+31,0.03468,0.000417206,1.44973e-08,7.27893e-56,2.47026e+15,1.34379e+16,1.63378e+12,1.59098e+16
9.67236e+06,109058,8.97099e+06,4.148e+26,1.70563e+23,2.09744e+11,0.198721,7.85999e+31,0.03468,0.000417206,1.44973e-08,7.27893e-56,2.46953e+15,1.34344e+16,1.63325e+12,1.59056e+16
9.77438e+06,109038,8.97024e+06,4.28017e+26,1.75943e+23,2.11955e+11,0.198754,7.85339e+31,0.03468,0.000417206,1.44973e-08,7.27893e-56,2.46878e+15,1.34308e+16,1.6327e+12,1.59012e+16
9.87748e+06,109018,8.96948e+06,4.41655e+26,1.81493e+23,2.14189e+11,0.198787,7.84665e+31,0.03468,0.000417206,1.44973e-08,7.27893e-56,2.46801e+15,1.34272e+16,1.63215e+12,1.58968e+16
9.98168e+06,108997,8.9687e+06,4.55728e+26,1.87216e+23,2.16447e+11,0.198821,7.83978e+31,0.03468,0.000417206,1.44973e-08,7.27893e-56,2.46723e+15,1.34235e+16,1.63158e+12,1.58923e+16
1.0087e+07,108976,8.96791e+06,4.7025e+26,1.93118e+23,2.18729e+11,0.198856,7.83277e+31,0.03468,0.000417206,1.44973e-08,7.27893e-56,2.46643e+15,1.34197e+16,1.631e+12,1.58877e+16
1.01934e+07,108954,8.9671e+06,4.85234e+26,1.99205e+23,2.21036e+11,0.198891,7.82561e+31,0.03468,0.000417206,1.44973e-08,7.27893e-56,2.46562e+15,1.34158e+16,1.63041e+12,1.5883e+16
1.0301e+07,108932,8.96627e+06,5.00696e+26,2.05482e+23,2.23366e+11,0.198927,7.81831e+31,0.03468,0.000417206,1.44973e-08,7.27893e-56,2.46478e+15,1.34118e+16,1.62981e+12,1.58783e+16
1.04019e+07,108911,8.96548e+06,5.15494e+26,2.11487e+23,2.25553e+11,0.198962,7.8114e+31,0.03468,0.000417206,1.44973e-08,7.27893e-56,2.46399e+15,1.34081e+16,1.62924e+12,1.58737e+16
1.05038e+07,108890,8.96468e+06,5.30729e+26,2.17665e+23,2.27761e+11,0.198997,7.80436e+31,0.03468,0.000417206,1.44973e-08,7.27893e-56,2.46319e+15,1.34043e+16,1.62866e+12,1.58691e+16
1.06067e+07,108868,8.96386e+06,5.46415e+26,2.24023e+23,2.2999e+11,0.199032,7.79718e+31,0.03468,0.000417206,1.44973e-08,7.27893e-56,2.46237e+15,1.34004e+16,1.62806e+12,1.58644e+16
1.07106e+07,108846,8.96303e+06,5.62564e+26,2.30565e+23,2.32242e+11,0.199069,7.78987e+31,0.03468,0.000417206,1.44973e-08,7.27893e-56,2.46154e+15,1.33964e+16,1.62746e+12,1.58596e+16
1.08155e+07,108823,8.96218e+06,5.79191e+26,2.37296e+23,2.34516e+11,0.199106,7.78243e+31,0.03468,0.000417206,1.44973e-08,7.27893e-56,2.46069e+15,1.33924e+16,1.62684e+12,1.58547e+16
1.09215e+07,108800,8.96132e+06,5.96309e+26,2.44222e+23,2.36812e+11,0.199143,7.77484e+31,0.03468,0.000417206,1.44973e-08,7.27893e-56,2.45982e+15,1.33882e+16,1.62621e+12,1.58497e+16
1.10285e+07,108777,8.96043e+06,6.13933e+26,2.51349e+23,2.39131e+11,0.199182,7.76711e+31,0.03468,0.000417206,1.44973e-08,7.27893e-56,2.45893e+15,1.3384e+16,1.62557e+12,1.58446e+16
1.11366e+07,108753,8.95953e+06,6.32077e+26,2.58681e+23,2.41473e+11,0.199221,7.75924e+31,0.03468,0.000417206,1.44973e-08,7.27893e-56,2.45803e+15,1.33797e+16,1.62492e+12,1.58394e+16
1.12373e+07,108731,8.95869e+06,6.49302e+26,2.65638e+23,2.43655e+11,0.199258,7.75184e+31,0.03468,0.000417206,1.44973e-08,7.27893e-56,2.45718e+15,1.33757e+16,1.6243e+12,1.58345e+16
