X = 0.734
Y = 0.25
Z = 0.016
mu = 0.601142
Radius,Density,Temp,Mass,Lum,OptD,Kff,KH,Kes,PP,CNO,3a,Deg,Gas,Rad,TotPres
0,0,0,0,0,0,-nan,0,0.03468,8.09988e-05,5.04722e-12,1.66013e-63,0,0,0,0
1,104817,6.05088e+06,439054,35.5629,80388.3,0.766943,2.22643e+30,0.03468,8.09988e-05,5.04722e-12,1.66013e-63,2.31154e+15,8.709e+15,3.38036e+11,1.10209e+16
30001,104816,6.05087e+06,1.18557e+19,9.60293e+14,2.41173e+09,0.766943,2.22643e+30,0.03468,8.09988e-05,5.04722e-12,1.66013e-63,2.31154e+15,8.709e+15,3.38036e+11,1.10209e+16
70001,104816,6.05087e+06,1.50602e+20,1.21986e+16,5.62726e+09,0.766943,2.22642e+30,0.03468,8.09988e-05,5.04722e-12,1.66013e-63,2.31154e+15,8.709e+15,3.38036e+11,1.10209e+16
150001,104816,6.05087e+06,1.48184e+21,1.20026e+17,1.20583e+10,0.766945,2.2264e+30,0.03468,8.09988e-05,5.04722e-12,1.66013e-63,2.31153e+15,8.70897e+15,3.38034e+11,1.10208e+16
250001,104816,6.05085e+06,6.86028e+21,5.55667e+17,2.00971e+10,0.766948,2.22635e+30,0.03468,8.09988e-05,5.04722e-12,1.66013e-63,2.31151e+15,8.70891e+15,3.38031e+11,1.10208e+16
350001,104815,6.05083e+06,1.88245e+22,1.52472e+18,2.8136e+10,0.766953,2.22627e+30,0.03468,8.09988e-05,5.04722e-12,1.66013e-63,2.31148e+15,8.70881e+15,3.38027e+11,1.10206e+16
450001,104814,6.05081e+06,4.00085e+22,3.24051e+18,3.61748e+10,0.76696,2.22617e+30,0.03468,8.09988e-05,5.04722e-12,1.66012e-63,2.31144e+15,8.70869e+15,3.38021e+11,1.10205e+16
550001,104813,6.05077e+06,7.30465e+22,5.91631e+18,4.42136e+10,0.766969,2.22605e+30,0.03468,8.09988e-05,5.04722e-12,1.66012e-63,2.3114e+15,8.70854e+15,3.38013e+11,1.10203e+16
650001,104811,6.05073e+06,1.20572e+23,9.76535e+18,5.22524e+10,0.766979,2.2259e+30,0.03468,8.09987e-05,5.04722e-12,1.66012e-63,2.31134e+15,8.70836e+15,3.38004e+11,1.102e+16
750001,104809,6.05069e+06,1.85219e+23,1.50008e+19,6.02912e+10,0.766991,2.22572e+30,0.03468,8.09987e-05,5.04722e-12,1.66012e-63,2.31128e+15,8.70814e+15,3.37994e+11,1.10198e+16
850001,104807,6.05063e+06,2.69621e+23,2.18358e+19,6.833e+10,0.767004,2.22553e+30,0.03468,8.09987e-05,5.04722e-12,1.66012e-63,2.31121e+15,8.7079e+15,3.37982e+11,1.10194e+16
950001,104805,6.05057e+06,3.76411e+23,3.04832e+19,7.63688e+10,0.76702,2.2253e+30,0.03468,8.09987e-05,5.04722e-12,1.66012e-63,2.31112e+15,8.70763e+15,3.37968e+11,1.10191e+16
1.05e+06,104803,6.0505e+06,5.08222e+23,4.1156e+19,8.44075e+10,0.767037,2.22505e+30,0.03468,8.09987e-05,5.04721e-12,1.66012e-63,2.31103e+15,8.70732e+15,3.37953e+11,1.10187e+16
1.15e+06,104800,6.05043e+06,6.67685e+23,5.4067e+19,9.24463e+10,0.767056,2.22478e+30,0.03468,8.09987e-05,5.04721e-12,1.66012e-63,2.31093e+15,8.70699e+15,3.37936e+11,1.10183e+16
1.25e+06,104797,6.05035e+06,8.57434e+23,6.94289e+19,1.00485e+11,0.767076,2.22448e+30,0.03468,8.09987e-05,5.0472e-12,1.66011e-63,2.31082e+15,8.70662e+15,3.37918e+11,1.10178e+16
1.35e+06,104794,6.05026e+06,1.0801e+24,8.74541e+19,1.08524e+11,0.767099,2.22415e+30,0.03468,8.09987e-05,5.0472e-12,1.66011e-63,2.3107e+15,8.70623e+15,3.37899e+11,1.10173e+16
1.45e+06,104790,6.05017e+06,1.33831e+24,1.08355e+20,1.16562e+11,0.767123,2.2238e+30,0.03468,8.09986e-05,5.0472e-12,1.66011e-63,2.31057e+15,8.7058e+15,3.37878e+11,1.10167e+16
1.55e+06,104787,6.05007e+06,1.63471e+24,1.32344e+20,1.24601e+11,0.767149,2.22343e+30,0.03468,8.09986e-05,5.04719e-12,1.6601e-63,2.31044e+15,8.70535e+15,3.37855e+11,1.10161e+16
1.65e+06,104783,6.04996e+06,1.97191e+24,1.59633e+20,1.3264e+11,0.767176,2.22303e+30,0.03468,8.09986e-05,5.04718e-12,1.66009e-63,2.31029e+15,8.70486e+15,3.37831e+11,1.10155e+16
1.75e+06,104778,6.04984e+06,2.35255e+24,1.90434e+20,1.40679e+11,0.767205,2.22261e+30,0.03468,8.09985e-05,5.04717e-12,1.66009e-63,2.31013e+15,8.70434e+15,3.37805e+11,1.10148e+16
1.85e+06,104774,6.04972e+06,2.77925e+24,2.24958e+20,1.48717e+11,0.767236,2.22216e+30,0.03468,8.09983e-05,5.04713e-12,1.66006e-63,2.30997e+15,8.7038e+15,3.37778e+11,1.10141e+16
1.95e+06,104769,6.04959e+06,3.25466e+24,2.63418e+20,1.56756e+11,0.767269,2.22168e+30,0.03468,8.09982e-05,5.0471e-12,1.66004e-63,2.3098e+15,8.70322e+15,3.3775e+11,1.10134e+16
2.05e+06,104764,6.04946e+06,3.78138e+24,3.06023e+20,1.64794e+11,0.767303,2.22118e+30,0.03468,8.09982e-05,5.0471e-12,1.66004e-63,2.30961e+15,8.70261e+15,3.37719e+11,1.10126e+16
2.15e+06,104759,6.04932e+06,4.36205e+24,3.52986e+20,1.72833e+11,0.767339,2.22066e+30,0.03468,8.09981e-05,5.04708e-12,1.66002e-63,2.30942e+15,8.70197e+15,3.37688e+11,1.10117e+16
2.25e+06,104753,6.04917e+06,4.99931e+24,4.04518e+20,1.80872e+11,0.767377,2.22011e+30,0.03468,8.0998e-05,5.04705e-12,1.66e-63,2.30922e+15,8.70131e+15,3.37655e+11,1.10109e+16
2.35e+06,104748,6.04901e+06,5.69576e+24,4.60827e+20,1.8891e+11,0.767416,2.21954e+30,0.03468,8.09979e-05,5.04702e-12,1.65998e-63,2.30901e+15,8.70061e+15,3.3762e+11,1.101e+16
2.45e+06,104742,6.04885e+06,6.45403e+24,5.22126e+20,1.96949e+11,0.767458,2.21894e+30,0.03468,8.09975e-05,5.04694e-12,1.65992e-63,2.30879e+15,8.69988e+15,3.37584e+11,1.1009e+16
2.55e+06,104736,6.04868e+06,7.27676e+24,5.88624e+20,2.04987e+11,0.767501,2.21832e+30,0.03468,8.09971e-05,5.04685e-12,1.65986e-63,2.30856e+15,8.69912e+15,3.37546e+11,1.1008e+16
2.65e+06,104729,6.04851e+06,8.16656e+24,6.6053e+20,2.13026e+11,0.767545,2.21767e+30,0.03468,8.09972e-05,5.04688e-12,1.65988e-63,2.30833e+15,8.69833e+15,3.37507e+11,1.1007e+16
2.75e+06,104722,6.04833e+06,9.12605e+24,7.38054e+20,2.21064e+11,0.767592,2.217e+30,0.03468,8.0997e-05,5.04683e-12,1.65985e-63,2.30808e+15,8.69751e+15,3.37467e+11,1.10059e+16
2.85e+06,104715,6.04814e+06,1.01579e+25,8.21405e+20,2.29102e+11,0.76764,2.21631e+30,0.03468,8.09968e-05,5.04677e-12,1.6598e-63,2.30782e+15,8.69666e+15,3.37425e+11,1.10048e+16
2.95e+06,104708,6.04794e+06,1.12646e+25,9.10792e+20,2.37141e+11,0.76769,2.21559e+30,0.03468,8.09966e-05,5.04674e-12,1.65978e-63,2.30756e+15,8.69578e+15,3.37381e+11,1.10037e+16
3.05e+06,104701,6.04774e+06,1.24489e+25,1.00642e+21,2.45179e+11,0.767741,2.21484e+30,0.03468,8.09961e-05,5.04662e-12,1.65969e-63,2.30728e+15,8.69487e+15,3.37336e+11,1.10025e+16
3.15e+06,104693,6.04753e+06,1.37133e+25,1.10851e+21,2.53217e+11,0.767795,2.21407e+30,0.03468,8.09954e-05,5.04647e-12,1.65959e-63,2.307e+15,8.69393e+15,3.37289e+11,1.10013e+16
3.25e+06,104685,6.04731e+06,1.50606e+25,1.21725e+21,2.61256e+11,0.76785,2.21328e+30,0.03468,8.09956e-05,5.04652e-12,1.65962e-63,2.30671e+15,8.69296e+15,3.37241e+11,1.1e+16
3.35e+06,104677,6.04709e+06,1.64932e+25,1.33286e+21,2.69294e+11,0.767906,2.21246e+30,0.03468,8.09954e-05,5.04646e-12,1.65958e-63,2.30641e+15,8.69196e+15,3.37191e+11,1.09987e+16
3.45e+06,104668,6.04686e+06,1.80139e+25,1.45555e+21,2.77332e+11,0.767965,2.21161e+30,0.03468,8.0995e-05,5.04638e-12,1.65952e-63,2.3061e+15,8.69093e+15,3.3714e+11,1.09974e+16
3.55e+06,104660,6.04663e+06,1.96252e+25,1.58552e+21,2.8537e+11,0.768025,2.21075e+30,0.03468,8.09948e-05,5.04633e-12,1.65948e-63,2.30578e+15,8.68987e+15,3.37088e+11,1.0996e+16
3.65e+06,104651,6.04638e+06,2.13297e+25,1.72297e+21,2.93408e+11,0.768087,2.20985e+30,0.03468,8.09941e-05,5.04618e-12,1.65937e-63,2.30545e+15,8.68878e+15,3.37034e+11,1.09946e+16
3.75e+06,104642,6.04614e+06,2.31301e+25,1.86812e+21,3.01446e+11,0.768151,2.20894e+30,0.03468,8.09931e-05,5.04597e-12,1.65923e-63,2.30511e+15,8.68766e+15,3.36978e+11,1.09931e+16
3.85e+06,104632,6.04588e+06,2.50289e+25,2.02117e+21,3.09485e+11,0.768216,2.20799e+30,0.03468,8.09934e-05,5.04604e-12,1.65927e-63,2.30477e+15,8.68651e+15,3.36921e+11,1.09916e+16
3.95e+06,104623,6.04562e+06,2.70288e+25,2.18232e+21,3.17523e+11,0.768283,2.20703e+30,0.03468,8.09931e-05,5.04597e-12,1.65922e-63,2.30441e+15,8.68533e+15,3.36862e+11,1.09901e+16
4.05e+06,104613,6.04535e+06,2.91324e+25,2.35178e+21,3.25561e+11,0.768352,2.20604e+30,0.03468,8.09927e-05,5.04586e-12,1.65914e-63,2.30405e+15,8.68412e+15,3.36802e+11,1.09885e+16
4.15e+06,104602,6.04507e+06,3.13423e+25,2.52975e+21,3.33598e+11,0.768423,2.20503e+30,0.03468,8.09924e-05,5.04579e-12,1.6591e-63,2.30368e+15,8.68288e+15,3.36741e+11,1.09869e+16
4.25e+06,104592,6.04479e+06,3.3661e+25,2.71643e+21,3.41636e+11,0.768495,2.20399e+30,0.03468,8.09916e-05,5.04561e-12,1.65896e-63,2.30329e+15,8.68161e+15,3.36678e+11,1.09852e+16
4.35e+06,104581,6.0445e+06,3.60912e+25,2.91204e+21,3.49674e+11,0.768569,2.20292e+30,0.03468,8.09903e-05,5.04535e-12,1.65878e-63,2.3029e+15,8.68031e+15,3.36613e+11,1.09835e+16
4.45e+06,104570,6.0442e+06,3.86355e+25,3.11676e+21,3.57712e+11,0.768645,2.20184e+30,0.03468,8.09907e-05,5.04543e-12,1.65884e-63,2.3025e+15,8.67898e+15,3.36547e+11,1.09818e+16
4.55e+06,104559,6.0439e+06,4.12965e+25,3.33081e+21,3.6575e+11,0.768722,2.20073e+30,0.03468,8.09904e-05,5.04535e-12,1.65877e-63,2.30209e+15,8.67761e+15,3.3648e+11,1.098e+16
4.65e+06,104548,6.04359e+06,4.40767e+25,3.55439e+21,3.73787e+11,0.768802,2.19959e+30,0.03468,8.09898e-05,5.04521e-12,1.65868e-63,2.30167e+15,8.67622e+15,3.36411e+11,1.09782e+16
4.75e+06,104536,6.04327e+06,4.69788e+25,3.78769e+21,3.81825e+11,0.768883,2.19843e+30,0.03468,8.09894e-05,5.04514e-12,1.65862e-63,2.30125e+15,8.6748e+15,3.3634e+11,1.09764e+16
4.85e+06,104524,6.04295e+06,5.00054e+25,4.03091e+21,3.89863e+11,0.768965,2.19725e+30,0.03468,8.09885e-05,5.04492e-12,1.65846e-63,2.30081e+15,8.67335e+15,3.36268e+11,1.09745e+16
4.95e+06,104512,6.04262e+06,5.3159e+25,4.28427e+21,3.979e+11,0.76905,2.19604e+30,0.03468,8.0987e-05,5.0446e-12,1.65824e-63,2.30036e+15,8.67187e+15,3.36195e+11,1.09726e+16
5.05e+06,104500,6.04228e+06,5.64423e+25,4.54795e+21,4.05938e+11,0.769136,2.19481e+30,0.03468,8.09875e-05,5.0447e-12,1.65831e-63,2.29991e+15,8.67036e+15,3.3612e+11,1.09706e+16
5.15e+06,104487,6.04194e+06,5.98578e+25,4.82215e+21,4.13975e+11,0.769224,2.19356e+30,0.03468,8.0987e-05,5.0446e-12,1.65824e-63,2.29945e+15,8.66882e+15,3.36044e+11,1.09686e+16
5.25e+06,104474,6.04159e+06,6.34081e+25,5.10708e+21,4.22013e+11,0.769313,2.19228e+30,0.03468,8.09864e-05,5.04445e-12,1.65813e-63,2.29897e+15,8.66725e+15,3.35966e+11,1.09666e+16
5.35e+06,104461,6.04123e+06,6.70958e+25,5.40293e+21,4.3005e+11,0.769405,2.19098e+30,0.03468,8.09859e-05,5.04436e-12,1.65806e-63,2.29849e+15,8.66565e+15,3.35886e+11,1.09645e+16
5.45e+06,104448,6.04087e+06,7.09235e+25,5.7099e+21,4.38087e+11,0.769498,2.18965e+30,0.03468,8.09848e-05,5.0441e-12,1.65788e-63,2.298e+15,8.66402e+15,3.35806e+11,1.09624e+16
5.55e+06,104434,6.0405e+06,7.48938e+25,6.02818e+21,4.46125e+11,0.769593,2.1883e+30,0.03468,8.09831e-05,5.04373e-12,1.65761e-63,2.2975e+15,8.66236e+15,3.35723e+11,1.09602e+16
5.65e+06,104420,6.04012e+06,7.90092e+25,6.35797e+21,4.54162e+11,0.769689,2.18693e+30,0.03468,8.09837e-05,5.04385e-12,1.6577e-63,2.29699e+15,8.66067e+15,3.35639e+11,1.0958e+16
5.75e+06,104406,6.03974e+06,8.32723e+25,6.69947e+21,4.62199e+11,0.769787,2.18553e+30,0.03468,8.09832e-05,5.04374e-12,1.65761e-63,2.29648e+15,8.65895e+15,3.35554e+11,1.09558e+16
5.85e+06,104392,6.03935e+06,8.76857e+25,7.05286e+21,4.70236e+11,0.769888,2.18411e+30,0.03468,8.09824e-05,5.04355e-12,1.65748e-63,2.29595e+15,8.6572e+15,3.35467e+11,1.09535e+16
5.95e+06,104377,6.03895e+06,9.2252e+25,7.41836e+21,4.78273e+11,0.769989,2.18266e+30,0.03468,8.09819e-05,5.04345e-12,1.65741e-63,2.29542e+15,8.65542e+15,3.35379e+11,1.09512e+16
6.05e+06,104362,6.03855e+06,9.69737e+25,7.79614e+21,4.8631e+11,0.770093,2.18119e+30,0.03468,8.09807e-05,5.04316e-12,1.6572e-63,2.29487e+15,8.65361e+15,3.3529e+11,1.09488e+16
6.15e+06,104347,6.03814e+06,1.01853e+26,8.18639e+21,4.94347e+11,0.770198,2.1797e+30,0.03468,8.09786e-05,5.04274e-12,1.6569e-63,2.29432e+15,8.65177e+15,3.35198e+11,1.09464e+16
6.25e+06,104332,6.03772e+06,1.06894e+26,8.58933e+21,5.02384e+11,0.770305,2.17819e+30,0.03468,8.09793e-05,5.04287e-12,1.65699e-63,2.29376e+15,8.6499e+15,3.35106e+11,1.0944e+16
6.35e+06,104316,6.0373e+06,1.12097e+26,9.00512e+21,5.1042e+11,0.770414,2.17665e+30,0.03468,8.09787e-05,5.04274e-12,1.6569e-63,2.29319e+15,8.648e+15,3.35012e+11,1.09415e+16
6.45e+06,104301,6.03687e+06,1.17466e+26,9.43397e+21,5.18457e+11,0.770524,2.17509e+30,0.03468,8.09779e-05,5.04254e-12,1.65675e-63,2.29261e+15,8.64607e+15,3.34916e+11,1.0939e+16
6.55e+06,104285,6.03643e+06,1.23003e+26,9.87606e+21,5.26494e+11,0.770636,2.1735e+30,0.03468,8.09773e-05,5.04242e-12,1.65667e-63,2.29202e+15,8.64411e+15,3.34819e+11,1.09365e+16
6.65e+06,104268,6.03598e+06,1.28712e+26,1.03316e+22,5.3453e+11,0.77075,2.1719e+30,0.03468,8.09759e-05,5.0421e-12,1.65643e-63,2.29142e+15,8.64213e+15,3.34721e+11,1.09339e+16
6.75e+06,104252,6.03553e+06,1.34593e+26,1.08007e+22,5.42567e+11,0.770866,2.17027e+30,0.03468,8.09736e-05,5.04163e-12,1.6561e-63,2.29081e+15,8.64011e+15,3.34621e+11,1.09313e+16
6.85e+06,104235,6.03508e+06,1.4065e+26,1.12837e+22,5.50603e+11,0.770984,2.16861e+30,0.03468,8.09744e-05,5.04177e-12,1.6562e-63,2.2902e+15,8.63806e+15,3.3452e+11,1.09286e+16
6.95e+06,104218,6.03461e+06,1.46886e+26,1.17806e+22,5.58639e+11,0.771103,2.16694e+30,0.03468,8.09737e-05,5.04163e-12,1.6561e-63,2.28958e+15,8.63599e+15,3.34417e+11,1.09259e+16
7.05e+06,104201,6.03414e+06,1.53303e+26,1.22918e+22,5.66676e+11,0.771224,2.16524e+30,0.03468,8.09728e-05,5.0414e-12,1.65593e-63,2.28894e+15,8.63388e+15,3.34312e+11,1.09232e+16
7.15e+06,104183,6.03367e+06,1.59903e+26,1.28173e+22,5.74712e+11,0.771346,2.16351e+30,0.03468,8.09722e-05,5.04127e-12,1.65584e-63,2.2883e+15,8.63175e+15,3.34207e+11,1.09204e+16
7.25e+06,104165,6.03318e+06,1.6669e+26,1.33573e+22,5.82748e+11,0.771471,2.16177e+30,0.03468,8.09706e-05,5.04091e-12,1.65558e-63,2.28765e+15,8.62958e+15,3.34099e+11,1.09176e+16
7.35e+06,104147,6.03269e+06,1.73665e+26,1.39121e+22,5.90784e+11,0.771597,2.16e+30,0.03468,8.09681e-05,5.04039e-12,1.6552e-63,2.28699e+15,8.62739e+15,3.33991e+11,1.09147e+16
7.45e+06,104129,6.03219e+06,1.80831e+26,1.44818e+22,5.9882e+11,0.771725,2.15821e+30,0.03468,8.09689e-05,5.04055e-12,1.65532e-63,2.28632e+15,8.62516e+15,3.33881e+11,1.09118e+16
7.55e+06,104110,6.03169e+06,1.88191e+26,1.50666e+22,6.06856e+11,0.771855,2.15639e+30,0.03468,8.09682e-05,5.04039e-12,1.65521e-63,2.28565e+15,8.62291e+15,3.33769e+11,1.09089e+16
7.65e+06,104092,6.03118e+06,1.95747e+26,1.56667e+22,6.14892e+11,0.771986,2.15456e+30,0.03468,8.09671e-05,5.04014e-12,1.65503e-63,2.28496e+15,8.62063e+15,3.33656e+11,1.09059e+16
7.75e+06,104073,6.03066e+06,2.03502e+26,1.62823e+22,6.22927e+11,0.772119,2.1527e+30,0.03468,8.09665e-05,5.04e-12,1.65492e-63,2.28427e+15,8.61832e+15,3.33542e+11,1.09029e+16
7.85e+06,104053,6.03014e+06,2.11458e+26,1.69134e+22,6.30963e+11,0.772254,2.15082e+30,0.03468,8.09647e-05,5.0396e-12,1.65464e-63,2.28356e+15,8.61598e+15,3.33426e+11,1.08999e+16
7.95e+06,104034,6.02961e+06,2.19618e+26,1.75605e+22,6.38999e+11,0.772391,2.14891e+30,0.03468,8.09619e-05,5.03902e-12,1.65422e-63,2.28285e+15,8.6136e+15,3.33308e+11,1.08968e+16
8.05e+06,104014,6.02907e+06,2.27984e+26,1.82235e+22,6.47034e+11,0.772529,2.14699e+30,0.03468,8.09629e-05,5.03921e-12,1.65435e-63,2.28213e+15,8.6112e+15,3.3319e+11,1.08937e+16
8.15e+06,103994,6.02853e+06,2.3656e+26,1.89027e+22,6.5507e+11,0.772669,2.14504e+30,0.03468,8.09621e-05,5.03903e-12,1.65423e-63,2.2814e+15,8.60878e+15,3.33069e+11,1.08905e+16
8.25e+06,103974,6.02798e+06,2.45346e+26,1.95982e+22,6.63105e+11,0.772811,2.14307e+30,0.03468,8.0961e-05,5.03875e-12,1.65403e-63,2.28066e+15,8.60632e+15,3.32948e+11,1.08873e+16
8.35e+06,103954,6.02742e+06,2.54346e+26,2.03103e+22,6.7114e+11,0.772955,2.14108e+30,0.03468,8.09602e-05,5.0386e-12,1.65392e-63,2.27991e+15,8.60383e+15,3.32825e+11,1.08841e+16
8.45e+06,103933,6.02685e+06,2.63563e+26,2.1039e+22,6.79175e+11,0.7731,2.13906e+30,0.03468,8.09583e-05,5.03816e-12,1.6536e-63,2.27916e+15,8.60131e+15,3.327e+11,1.08808e+16
8.55e+06,103912,6.02628e+06,2.72998e+26,2.17847e+22,6.8721e+11,0.773248,2.13702e+30,0.03468,8.09553e-05,5.03754e-12,1.65316e-63,2.27839e+15,8.59877e+15,3.32574e+11,1.08775e+16
8.65e+06,103891,6.02571e+06,2.82655e+26,2.25474e+22,6.95245e+11,0.773397,2.13496e+30,0.03468,8.09563e-05,5.03774e-12,1.6533e-63,2.27762e+15,8.59619e+15,3.32447e+11,1.08741e+16
8.75e+06,103870,6.02512e+06,2.92536e+26,2.33273e+22,7.0328e+11,0.773547,2.13288e+30,0.03468,8.09555e-05,5.03755e-12,1.65316e-63,2.27684e+15,8.59359e+15,3.32318e+11,1.08708e+16
8.85e+06,103848,6.02453e+06,3.02643e+26,2.41246e+22,7.11315e+11,0.7737,2.13078e+30,0.03468,8.09542e-05,5.03724e-12,1.65294e-63,2.27605e+15,8.59096e+15,3.32188e+11,1.08673e+16
8.95e+06,103826,6.02394e+06,3.12979e+26,2.49394e+22,7.1935e+11,0.773854,2.12866e+30,0.03468,8.09534e-05,5.03708e-12,1.65282e-63,2.27525e+15,8.58829e+15,3.32056e+11,1.08639e+16
9.05e+06,103804,6.02333e+06,3.23546e+26,2.5772e+22,7.27384e+11,0.77401,2.12651e+30,0.03468,8.09514e-05,5.03661e-12,1.65248e-63,2.27444e+15,8.5856e+15,3.31923e+11,1.08604e+16
9.15e+06,103781,6.02272e+06,3.34347e+26,2.66225e+22,7.35419e+11,0.774168,2.12434e+30,0.03468,8.09481e-05,5.03593e-12,1.652e-63,2.27362e+15,8.58288e+15,3.31788e+11,1.08568e+16
9.25e+06,103759,6.0221e+06,3.45384e+26,2.74911e+22,7.43453e+11,0.774327,2.12215e+30,0.03468,8.09492e-05,5.03614e-12,1.65215e-63,2.27279e+15,8.58013e+15,3.31652e+11,1.08533e+16
9.35e+06,103736,6.02148e+06,3.56661e+26,2.83779e+22,7.51488e+11,0.774489,2.11994e+30,0.03468,8.09483e-05,5.03594e-12,1.65201e-63,2.27196e+15,8.57735e+15,3.31515e+11,1.08496e+16
9.45e+06,103713,6.02085e+06,3.68178e+26,2.9283e+22,7.59522e+11,0.774652,2.11771e+30,0.03468,8.09469e-05,5.03561e-12,1.65177e-63,2.27112e+15,8.57455e+15,3.31376e+11,1.0846e+16
9.55e+06,103690,6.02021e+06,3.79939e+26,3.02068e+22,7.67556e+11,0.774816,2.11546e+30,0.03468,8.0946e-05,5.03543e-12,1.65164e-63,2.27027e+15,8.57171e+15,3.31236e+11,1.08423e+16
9.65e+06,103666,6.01957e+06,3.91946e+26,3.11492e+22,7.7559e+11,0.774983,2.11318e+30,0.03468,8.09439e-05,5.03492e-12,1.65128e-63,2.26941e+15,8.56885e+15,3.31095e+11,1.08386e+16
9.75e+06,103642,6.01892e+06,4.04202e+26,3.21106e+22,7.83624e+11,0.775151,2.11089e+30,0.03468,8.09403e-05,5.03419e-12,1.65075e-63,2.26854e+15,8.56595e+15,3.30952e+11,1.08348e+16
9.85e+06,103618,6.01826e+06,4.16709e+26,3.3091e+22,7.91658e+11,0.775322,2.10857e+30,0.03468,8.09415e-05,5.03443e-12,1.65092e-63,2.26766e+15,8.56303e+15,3.30807e+11,1.0831e+16
9.95e+06,103594,6.0176e+06,4.2947e+26,3.40905e+22,7.99692e+11,0.775493,2.10623e+30,0.03468,8.09405e-05,5.03421e-12,1.65076e-63,2.26677e+15,8.56008e+15,3.30661e+11,1.08272e+16
1.005e+07,103569,6.01693e+06,4.42486e+26,3.51095e+22,8.07725e+11,0.775667,2.10388e+30,0.03468,8.09391e-05,5.03386e-12,1.65051e-63,2.26588e+15,8.5571e+15,3.30514e+11,1.08233e+16
1.015e+07,103545,6.01625e+06,4.55761e+26,3.6148e+22,8.15759e+11,0.775843,2.1015e+30,0.03468,8.09381e-05,5.03367e-12,1.65037e-63,2.26498e+15,8.55409e+15,3.30365e+11,1.08194e+16
1.025e+07,103520,6.01557e+06,4.69297e+26,3.72061e+22,8.23792e+11,0.77602,2.0991e+30,0.03468,8.09358e-05,5.03312e-12,1.64998e-63,2.26406e+15,8.55105e+15,3.30215e+11,1.08154e+16
1.035e+07,103494,6.01488e+06,4.83097e+26,3.82841e+22,8.31825e+11,0.776199,2.09667e+30,0.03468,8.0932e-05,5.03234e-12,1.64942e-63,2.26314e+15,8.54799e+15,3.30064e+11,1.08115e+16
1.045e+07,103469,6.01418e+06,4.97162e+26,3.93821e+22,8.39859e+11,0.776379,2.09423e+30,0.03468,8.09333e-05,5.03259e-12,1.6496e-63,2.26222e+15,8.54489e+15,3.29911e+11,1.08074e+16
1.055e+07,103443,6.01348e+06,5.11495e+26,4.05002e+22,8.47892e+11,0.776562,2.09177e+30,0.03468,8.09322e-05,5.03235e-12,1.64943e-63,2.26128e+15,8.54177e+15,3.29757e+11,1.08034e+16
1.065e+07,103417,6.01277e+06,5.26099e+26,4.16386e+22,8.55925e+11,0.776746,2.08929e+30,0.03468,8.09307e-05,5.03198e-12,1.64916e-63,2.26033e+15,8.53862e+15,3.29601e+11,1.07993e+16
1.075e+07,103391,6.01206e+06,5.40976e+26,4.27975e+22,8.63958e+11,0.776932,2.08679e+30,0.03468,8.09297e-05,5.03177e-12,1.64902e-63,2.25938e+15,8.53544e+15,3.29444e+11,1.07951e+16
1.085e+07,103364,6.01133e+06,5.56129e+26,4.39769e+22,8.7199e+11,0.77712,2.08426e+30,0.03468,8.09272e-05,5.03119e-12,1.6486e-63,2.25842e+15,8.53223e+15,3.29286e+11,1.0791e+16
1.095e+07,103338,6.0106e+06,5.7156e+26,4.51771e+22,8.80023e+11,0.77731,2.08172e+30,0.03468,8.09231e-05,5.03036e-12,1.648e-63,2.25744e+15,8.529e+15,3.29126e+11,1.07868e+16
1.105e+07,103311,6.00987e+06,5.87271e+26,4.63982e+22,8.88056e+11,0.777501,2.07915e+30,0.03468,8.09245e-05,5.03063e-12,1.64819e-63,2.25647e+15,8.52573e+15,3.28965e+11,1.07825e+16
