X = 0.734
Y = 0.25
Z = 0.016
mu = 0.601142
Radius,Density,Temp,Mass,Lum,OptD,Kff,KH,Kes,PP,CNO,3a,Deg,Gas,Rad,TotPres
0,0,0,0,0,0,-nan,0,0.03468,2.55224e-05,2.85188e-15,0,0,0,0,0
1,162100,4.06528e+06,679001,17.3297,678636,4.18654,7.72217e+28,0.03468,2.55224e-05,2.85188e-15,0,4.78066e+15,9.04885e+15,6.88738e+10,1.38296e+16
30001,162100,4.06528e+06,1.83349e+19,4.67949e+14,2.03598e+10,4.18654,7.72216e+28,0.03468,2.55224e-05,2.85188e-15,0,4.78066e+15,9.04885e+15,6.88737e+10,1.38296e+16
70001,162099,4.06528e+06,2.32907e+20,5.94434e+15,4.75052e+10,4.18654,7.72213e+28,0.03468,2.55224e-05,2.85188e-15,0,4.78065e+15,9.04883e+15,6.88736e+10,1.38296e+16
150001,162099,4.06527e+06,2.29167e+21,5.84883e+16,1.01796e+11,4.18656,7.72198e+28,0.03468,2.55224e-05,2.85188e-15,0,4.78062e+15,9.04878e+15,6.88731e+10,1.38295e+16
250001,162097,4.06526e+06,1.06094e+22,2.70772e+17,1.6966e+11,4.1866,7.72165e+28,0.03468,2.55224e-05,2.85188e-15,0,4.78056e+15,9.04867e+15,6.88719e+10,1.38293e+16
350001,162095,4.06523e+06,2.9112e+22,7.42972e+17,2.37523e+11,4.18665,7.72116e+28,0.03468,2.55224e-05,2.85188e-15,0,4.78045e+15,9.04849e+15,6.88702e+10,1.3829e+16
450001,162093,4.0652e+06,6.18728e+22,1.57902e+18,3.05387e+11,4.18673,7.7205e+28,0.03468,2.55224e-05,2.85188e-15,0,4.78032e+15,9.04826e+15,6.88678e+10,1.38286e+16
550001,162089,4.06515e+06,1.12965e+23,2.88281e+18,3.73251e+11,4.18682,7.71968e+28,0.03468,2.55224e-05,2.85188e-15,0,4.78015e+15,9.04797e+15,6.88649e+10,1.38282e+16
650001,162085,4.0651e+06,1.86462e+23,4.75818e+18,4.41115e+11,4.18693,7.7187e+28,0.03468,2.55224e-05,2.85188e-15,0,4.77995e+15,9.04763e+15,6.88614e+10,1.38276e+16
750001,162080,4.06504e+06,2.86434e+23,7.30892e+18,5.08979e+11,4.18706,7.71755e+28,0.03468,2.55224e-05,2.85188e-15,0,4.77971e+15,9.04723e+15,6.88573e+10,1.3827e+16
850001,162075,4.06497e+06,4.16955e+23,1.06387e+19,5.76843e+11,4.18721,7.71624e+28,0.03468,2.55224e-05,2.85188e-15,0,4.77944e+15,9.04677e+15,6.88526e+10,1.38263e+16
950001,162069,4.06489e+06,5.82094e+23,1.48513e+19,6.44707e+11,4.18738,7.71477e+28,0.03468,2.55224e-05,2.85188e-15,0,4.77914e+15,9.04625e+15,6.88474e+10,1.38255e+16
1.05e+06,162062,4.06481e+06,7.85921e+23,2.00501e+19,7.12572e+11,4.18757,7.71313e+28,0.03468,2.55224e-05,2.85187e-15,0,4.7788e+15,9.04568e+15,6.88415e+10,1.38245e+16
1.15e+06,162054,4.06471e+06,1.03251e+24,2.63387e+19,7.80436e+11,4.18778,7.71133e+28,0.03468,2.55224e-05,2.85187e-15,0,4.77843e+15,9.04505e+15,6.88351e+10,1.38235e+16
1.25e+06,162046,4.06461e+06,1.32591e+24,3.38203e+19,8.48301e+11,4.188,7.70937e+28,0.03468,2.55223e-05,2.85186e-15,0,4.77803e+15,9.04436e+15,6.88281e+10,1.38225e+16
1.35e+06,162037,4.0645e+06,1.67022e+24,4.25983e+19,9.16166e+11,4.18825,7.70724e+28,0.03468,2.55223e-05,2.85186e-15,0,4.77759e+15,9.04361e+15,6.88205e+10,1.38213e+16
1.45e+06,162028,4.06438e+06,2.06947e+24,5.27755e+19,9.84031e+11,4.18851,7.70495e+28,0.03468,2.55223e-05,2.85185e-15,0,4.77712e+15,9.04281e+15,6.88123e+10,1.382e+16
1.55e+06,162017,4.06425e+06,2.52775e+24,6.44551e+19,1.0519e+12,4.18879,7.7025e+28,0.03468,2.55223e-05,2.85185e-15,0,4.77662e+15,9.04195e+15,6.88035e+10,1.38186e+16
1.65e+06,162006,4.06411e+06,3.04911e+24,7.77398e+19,1.11976e+12,4.18909,7.69988e+28,0.03468,2.55223e-05,2.85183e-15,0,4.77608e+15,9.04103e+15,6.87941e+10,1.38172e+16
1.75e+06,161995,4.06396e+06,3.63762e+24,9.27323e+19,1.18763e+12,4.18941,7.6971e+28,0.03468,2.55223e-05,2.85183e-15,0,4.77551e+15,9.04006e+15,6.87842e+10,1.38156e+16
1.85e+06,161982,4.06381e+06,4.29733e+24,1.09535e+20,1.2555e+12,4.18975,7.69416e+28,0.03468,2.55221e-05,2.85178e-15,0,4.77491e+15,9.03903e+15,6.87737e+10,1.3814e+16
1.95e+06,161970,4.06364e+06,5.03229e+24,1.2825e+20,1.32336e+12,4.1901,7.69106e+28,0.03468,2.55221e-05,2.85175e-15,0,4.77427e+15,9.03794e+15,6.87626e+10,1.38123e+16
2.05e+06,161956,4.06347e+06,5.84658e+24,1.4898e+20,1.39123e+12,4.19048,7.6878e+28,0.03468,2.55221e-05,2.85175e-15,0,4.7736e+15,9.03679e+15,6.87509e+10,1.38105e+16
2.15e+06,161942,4.06329e+06,6.74423e+24,1.71826e+20,1.4591e+12,4.19088,7.68437e+28,0.03468,2.5522e-05,2.85173e-15,0,4.7729e+15,9.03559e+15,6.87386e+10,1.38086e+16
2.25e+06,161927,4.0631e+06,7.72931e+24,1.9689e+20,1.52697e+12,4.19129,7.68078e+28,0.03468,2.55219e-05,2.85169e-15,0,4.77216e+15,9.03433e+15,6.87258e+10,1.38066e+16
2.35e+06,161911,4.0629e+06,8.80585e+24,2.24274e+20,1.59483e+12,4.19172,7.67703e+28,0.03468,2.55219e-05,2.85167e-15,0,4.77139e+15,9.03301e+15,6.87124e+10,1.38045e+16
2.45e+06,161894,4.06269e+06,9.97791e+24,2.54078e+20,1.6627e+12,4.19217,7.67312e+28,0.03468,2.55217e-05,2.85158e-15,0,4.77058e+15,9.03164e+15,6.86983e+10,1.38023e+16
2.55e+06,161877,4.06248e+06,1.12495e+25,2.86404e+20,1.73057e+12,4.19264,7.66905e+28,0.03468,2.55214e-05,2.85149e-15,0,4.76975e+15,9.03021e+15,6.86838e+10,1.38e+16
2.65e+06,161860,4.06225e+06,1.26248e+25,3.21352e+20,1.79844e+12,4.19313,7.66482e+28,0.03468,2.55215e-05,2.85151e-15,0,4.76888e+15,9.02872e+15,6.86686e+10,1.37977e+16
2.75e+06,161841,4.06202e+06,1.41076e+25,3.59024e+20,1.86631e+12,4.19364,7.66043e+28,0.03468,2.55214e-05,2.85147e-15,0,4.76797e+15,9.02718e+15,6.86528e+10,1.37952e+16
2.85e+06,161822,4.06178e+06,1.57022e+25,3.99518e+20,1.93418e+12,4.19417,7.65588e+28,0.03468,2.55212e-05,2.8514e-15,0,4.76704e+15,9.02557e+15,6.86365e+10,1.37927e+16
2.95e+06,161802,4.06153e+06,1.74124e+25,4.42935e+20,2.00205e+12,4.19471,7.65117e+28,0.03468,2.55211e-05,2.85136e-15,0,4.76607e+15,9.02392e+15,6.86196e+10,1.37901e+16
3.05e+06,161782,4.06127e+06,1.92424e+25,4.89375e+20,2.06993e+12,4.19528,7.6463e+28,0.03468,2.55208e-05,2.85124e-15,0,4.76506e+15,9.0222e+15,6.86021e+10,1.37873e+16
3.15e+06,161761,4.061e+06,2.11962e+25,5.38936e+20,2.1378e+12,4.19586,7.64127e+28,0.03468,2.55204e-05,2.85108e-15,0,4.76403e+15,9.02043e+15,6.8584e+10,1.37845e+16
3.25e+06,161739,4.06073e+06,2.32778e+25,5.91718e+20,2.20567e+12,4.19646,7.63608e+28,0.03468,2.55205e-05,2.85113e-15,0,4.76296e+15,9.0186e+15,6.85654e+10,1.37816e+16
3.35e+06,161717,4.06044e+06,2.54911e+25,6.47819e+20,2.27355e+12,4.19708,7.63074e+28,0.03468,2.55204e-05,2.85107e-15,0,4.76185e+15,9.01672e+15,6.85462e+10,1.37786e+16
3.45e+06,161693,4.06015e+06,2.78404e+25,7.07337e+20,2.34142e+12,4.19773,7.62523e+28,0.03468,2.55202e-05,2.85098e-15,0,4.76072e+15,9.01478e+15,6.85264e+10,1.37756e+16
3.55e+06,161670,4.05985e+06,3.03294e+25,7.70372e+20,2.4093e+12,4.19838,7.61957e+28,0.03468,2.552e-05,2.85092e-15,0,4.75955e+15,9.01278e+15,6.8506e+10,1.37724e+16
3.65e+06,161645,4.05954e+06,3.29624e+25,8.37019e+20,2.47717e+12,4.19906,7.61375e+28,0.03468,2.55197e-05,2.85076e-15,0,4.75835e+15,9.01072e+15,6.8485e+10,1.37691e+16
3.75e+06,161620,4.05922e+06,3.57432e+25,9.07377e+20,2.54505e+12,4.19976,7.60778e+28,0.03468,2.55191e-05,2.85055e-15,0,4.75711e+15,9.00861e+15,6.84635e+10,1.37658e+16
3.85e+06,161594,4.05889e+06,3.86758e+25,9.81542e+20,2.61292e+12,4.20048,7.60164e+28,0.03468,2.55193e-05,2.85061e-15,0,4.75584e+15,9.00644e+15,6.84414e+10,1.37624e+16
3.95e+06,161568,4.05855e+06,4.17644e+25,1.05961e+21,2.6808e+12,4.20121,7.59536e+28,0.03468,2.55191e-05,2.85054e-15,0,4.75454e+15,9.00422e+15,6.84187e+10,1.37588e+16
4.05e+06,161540,4.05821e+06,4.50128e+25,1.14168e+21,2.74868e+12,4.20197,7.58891e+28,0.03468,2.55188e-05,2.85042e-15,0,4.75321e+15,9.00194e+15,6.83955e+10,1.37552e+16
4.15e+06,161513,4.05785e+06,4.84251e+25,1.22784e+21,2.81656e+12,4.20274,7.58231e+28,0.03468,2.55186e-05,2.85035e-15,0,4.75184e+15,8.9996e+15,6.83717e+10,1.37515e+16
4.25e+06,161484,4.05749e+06,5.20052e+25,1.3182e+21,2.88444e+12,4.20353,7.57556e+28,0.03468,2.55182e-05,2.85016e-15,0,4.75044e+15,8.99721e+15,6.83473e+10,1.37477e+16
4.35e+06,161455,4.05712e+06,5.57571e+25,1.41284e+21,2.95232e+12,4.20434,7.56865e+28,0.03468,2.55175e-05,2.84988e-15,0,4.74901e+15,8.99476e+15,6.83223e+10,1.37438e+16
4.45e+06,161425,4.05674e+06,5.96849e+25,1.51186e+21,3.0202e+12,4.20517,7.56158e+28,0.03468,2.55177e-05,2.84997e-15,0,4.74754e+15,8.99225e+15,6.82968e+10,1.37399e+16
4.55e+06,161394,4.05636e+06,6.37925e+25,1.61535e+21,3.08809e+12,4.20602,7.55437e+28,0.03468,2.55175e-05,2.84988e-15,0,4.74604e+15,8.98969e+15,6.82707e+10,1.37358e+16
4.65e+06,161363,4.05596e+06,6.80838e+25,1.72341e+21,3.15597e+12,4.20689,7.547e+28,0.03468,2.55171e-05,2.84973e-15,0,4.74451e+15,8.98707e+15,6.8244e+10,1.37317e+16
4.75e+06,161331,4.05555e+06,7.25628e+25,1.83614e+21,3.22385e+12,4.20778,7.53947e+28,0.03468,2.55169e-05,2.84965e-15,0,4.74295e+15,8.9844e+15,6.82167e+10,1.37274e+16
4.85e+06,161299,4.05514e+06,7.72335e+25,1.95361e+21,3.29174e+12,4.20868,7.5318e+28,0.03468,2.55164e-05,2.84942e-15,0,4.74135e+15,8.98166e+15,6.81889e+10,1.37231e+16
4.95e+06,161265,4.05472e+06,8.20999e+25,2.07593e+21,3.35963e+12,4.20961,7.52397e+28,0.03468,2.55155e-05,2.84908e-15,0,4.73972e+15,8.97888e+15,6.81606e+10,1.37187e+16
5.05e+06,161231,4.05429e+06,8.71658e+25,2.20319e+21,3.42751e+12,4.21055,7.51599e+28,0.03468,2.55158e-05,2.84919e-15,0,4.73806e+15,8.97604e+15,6.81316e+10,1.37142e+16
5.15e+06,161197,4.05385e+06,9.24353e+25,2.33548e+21,3.4954e+12,4.21152,7.50786e+28,0.03468,2.55155e-05,2.84908e-15,0,4.73637e+15,8.97314e+15,6.81021e+10,1.37096e+16
5.25e+06,161161,4.0534e+06,9.79123e+25,2.47288e+21,3.56329e+12,4.2125,7.49958e+28,0.03468,2.55151e-05,2.84891e-15,0,4.73464e+15,8.97018e+15,6.8072e+10,1.37049e+16
5.35e+06,161126,4.05295e+06,1.03601e+26,2.61549e+21,3.63118e+12,4.2135,7.49115e+28,0.03468,2.55149e-05,2.84882e-15,0,4.73288e+15,8.96717e+15,6.80414e+10,1.37001e+16
5.45e+06,161089,4.05248e+06,1.09504e+26,2.7634e+21,3.69907e+12,4.21452,7.48257e+28,0.03468,2.55142e-05,2.84854e-15,0,4.73109e+15,8.96411e+15,6.80102e+10,1.36953e+16
5.55e+06,161052,4.05201e+06,1.15627e+26,2.9167e+21,3.76696e+12,4.21557,7.47385e+28,0.03468,2.55132e-05,2.84815e-15,0,4.72926e+15,8.96099e+15,6.79784e+10,1.36903e+16
5.65e+06,161014,4.05153e+06,1.21974e+26,3.07548e+21,3.83486e+12,4.21662,7.46497e+28,0.03468,2.55135e-05,2.84828e-15,0,4.72741e+15,8.95781e+15,6.79461e+10,1.36853e+16
5.75e+06,160975,4.05103e+06,1.28547e+26,3.23982e+21,3.90275e+12,4.2177,7.45595e+28,0.03468,2.55132e-05,2.84815e-15,0,4.72552e+15,8.95458e+15,6.79132e+10,1.36802e+16
5.85e+06,160936,4.05054e+06,1.35351e+26,3.40981e+21,3.97065e+12,4.2188,7.44678e+28,0.03468,2.55128e-05,2.84796e-15,0,4.7236e+15,8.95129e+15,6.78797e+10,1.3675e+16
5.95e+06,160896,4.05003e+06,1.4239e+26,3.58553e+21,4.03854e+12,4.21992,7.43746e+28,0.03468,2.55125e-05,2.84785e-15,0,4.72164e+15,8.94795e+15,6.78457e+10,1.36697e+16
6.05e+06,160855,4.04951e+06,1.49668e+26,3.76709e+21,4.10644e+12,4.22105,7.428e+28,0.03468,2.55118e-05,2.84754e-15,0,4.71965e+15,8.94455e+15,6.78111e+10,1.36643e+16
6.15e+06,160814,4.04899e+06,1.57189e+26,3.95455e+21,4.17434e+12,4.22221,7.41839e+28,0.03468,2.55106e-05,2.84709e-15,0,4.71764e+15,8.94109e+15,6.7776e+10,1.36588e+16
6.25e+06,160772,4.04845e+06,1.64956e+26,4.14801e+21,4.24224e+12,4.22339,7.40864e+28,0.03468,2.5511e-05,2.84723e-15,0,4.71559e+15,8.93759e+15,6.77403e+10,1.36532e+16
6.35e+06,160729,4.04791e+06,1.72974e+26,4.34754e+21,4.31014e+12,4.22458,7.39875e+28,0.03468,2.55107e-05,2.84709e-15,0,4.7135e+15,8.93402e+15,6.77041e+10,1.36476e+16
6.45e+06,160686,4.04736e+06,1.81246e+26,4.55325e+21,4.37804e+12,4.22579,7.38871e+28,0.03468,2.55101e-05,2.84687e-15,0,4.71139e+15,8.9304e+15,6.76673e+10,1.36419e+16
6.55e+06,160642,4.0468e+06,1.89777e+26,4.76519e+21,4.44595e+12,4.22703,7.37852e+28,0.03468,2.55098e-05,2.84675e-15,0,4.70924e+15,8.92673e+15,6.76299e+10,1.3636e+16
6.65e+06,160598,4.04624e+06,1.98569e+26,4.98347e+21,4.51385e+12,4.22828,7.3682e+28,0.03468,2.5509e-05,2.8464e-15,0,4.70706e+15,8.923e+15,6.7592e+10,1.36301e+16
6.75e+06,160552,4.04566e+06,2.07627e+26,5.20816e+21,4.58176e+12,4.22955,7.35773e+28,0.03468,2.55077e-05,2.8459e-15,0,4.70485e+15,8.91921e+15,6.75536e+10,1.36241e+16
6.85e+06,160506,4.04508e+06,2.16955e+26,5.43935e+21,4.64967e+12,4.23084,7.34713e+28,0.03468,2.55081e-05,2.84606e-15,0,4.70261e+15,8.91538e+15,6.75146e+10,1.36181e+16
6.95e+06,160460,4.04448e+06,2.26557e+26,5.6771e+21,4.71757e+12,4.23215,7.33638e+28,0.03468,2.55077e-05,2.8459e-15,0,4.70033e+15,8.91148e+15,6.7475e+10,1.36119e+16
7.05e+06,160413,4.04388e+06,2.36436e+26,5.92151e+21,4.78548e+12,4.23348,7.32549e+28,0.03468,2.55072e-05,2.84566e-15,0,4.69803e+15,8.90753e+15,6.74349e+10,1.36056e+16
7.15e+06,160365,4.04327e+06,2.46597e+26,6.17266e+21,4.8534e+12,4.23483,7.31447e+28,0.03468,2.55068e-05,2.84552e-15,0,4.69569e+15,8.90353e+15,6.73942e+10,1.35993e+16
7.25e+06,160316,4.04266e+06,2.57042e+26,6.43061e+21,4.92131e+12,4.2362,7.3033e+28,0.03468,2.55059e-05,2.84513e-15,0,4.69332e+15,8.89947e+15,6.7353e+10,1.35929e+16
7.35e+06,160267,4.04203e+06,2.67776e+26,6.69546e+21,4.98922e+12,4.23759,7.292e+28,0.03468,2.55044e-05,2.84458e-15,0,4.69092e+15,8.89536e+15,6.73113e+10,1.35863e+16
7.45e+06,160217,4.04139e+06,2.78803e+26,6.96728e+21,5.05714e+12,4.23899,7.28056e+28,0.03468,2.55049e-05,2.84475e-15,0,4.68848e+15,8.8912e+15,6.7269e+10,1.35797e+16
7.55e+06,160166,4.04075e+06,2.90127e+26,7.24613e+21,5.12506e+12,4.24042,7.26899e+28,0.03468,2.55045e-05,2.84458e-15,0,4.68602e+15,8.88698e+15,6.72262e+10,1.35731e+16
7.65e+06,160115,4.0401e+06,3.01751e+26,7.53211e+21,5.19297e+12,4.24187,7.25728e+28,0.03468,2.55039e-05,2.84431e-15,0,4.68352e+15,8.8827e+15,6.71828e+10,1.35663e+16
7.75e+06,160063,4.03944e+06,3.13678e+26,7.82529e+21,5.26089e+12,4.24333,7.24543e+28,0.03468,2.55035e-05,2.84416e-15,0,4.681e+15,8.87837e+15,6.71389e+10,1.35594e+16
7.85e+06,160011,4.03877e+06,3.25914e+26,8.12573e+21,5.32882e+12,4.24482,7.23346e+28,0.03468,2.55024e-05,2.84373e-15,0,4.67844e+15,8.87399e+15,6.70944e+10,1.35525e+16
7.95e+06,159958,4.03809e+06,3.38461e+26,8.43352e+21,5.39674e+12,4.24632,7.22134e+28,0.03468,2.55008e-05,2.84312e-15,0,4.67585e+15,8.86955e+15,6.70494e+10,1.35455e+16
8.05e+06,159904,4.03741e+06,3.51324e+26,8.74873e+21,5.46466e+12,4.24785,7.2091e+28,0.03468,2.55014e-05,2.84331e-15,0,4.67322e+15,8.86506e+15,6.70039e+10,1.35384e+16
8.15e+06,159849,4.03671e+06,3.64506e+26,9.07143e+21,5.53259e+12,4.24939,7.19672e+28,0.03468,2.55009e-05,2.84313e-15,0,4.67057e+15,8.86052e+15,6.69578e+10,1.35312e+16
8.25e+06,159794,4.03601e+06,3.7801e+26,9.40169e+21,5.60052e+12,4.25095,7.18422e+28,0.03468,2.55002e-05,2.84283e-15,0,4.66789e+15,8.85592e+15,6.69112e+10,1.35239e+16
8.35e+06,159738,4.0353e+06,3.91841e+26,9.73958e+21,5.66845e+12,4.25254,7.17158e+28,0.03468,2.54998e-05,2.84267e-15,0,4.66517e+15,8.85127e+15,6.6864e+10,1.35165e+16
8.45e+06,159682,4.03458e+06,4.06003e+26,1.00852e+22,5.73638e+12,4.25414,7.15881e+28,0.03468,2.54987e-05,2.8422e-15,0,4.66242e+15,8.84657e+15,6.68163e+10,1.35091e+16
8.55e+06,159625,4.03385e+06,4.20498e+26,1.04385e+22,5.80431e+12,4.25576,7.14592e+28,0.03468,2.54969e-05,2.84153e-15,0,4.65965e+15,8.84181e+15,6.67681e+10,1.35015e+16
8.65e+06,159567,4.03311e+06,4.35332e+26,1.07997e+22,5.87224e+12,4.2574,7.1329e+28,0.03468,2.54975e-05,2.84174e-15,0,4.65684e+15,8.837e+15,6.67194e+10,1.34939e+16
8.75e+06,159509,4.03237e+06,4.50506e+26,1.11689e+22,5.94018e+12,4.25907,7.11975e+28,0.03468,2.5497e-05,2.84154e-15,0,4.654e+15,8.83213e+15,6.66701e+10,1.34862e+16
8.85e+06,159450,4.03162e+06,4.66026e+26,1.1546e+22,6.00812e+12,4.26075,7.10647e+28,0.03468,2.54963e-05,2.84122e-15,0,4.65113e+15,8.82722e+15,6.66203e+10,1.34784e+16
8.95e+06,159390,4.03085e+06,4.81895e+26,1.19311e+22,6.07605e+12,4.26245,7.09307e+28,0.03468,2.54958e-05,2.84104e-15,0,4.64823e+15,8.82224e+15,6.657e+10,1.34705e+16
9.05e+06,159330,4.03008e+06,4.98116e+26,1.23243e+22,6.144e+12,4.26417,7.07954e+28,0.03468,2.54946e-05,2.84053e-15,0,4.6453e+15,8.81722e+15,6.65191e+10,1.34626e+16
9.15e+06,159269,4.02931e+06,5.14693e+26,1.27257e+22,6.21194e+12,4.26591,7.06589e+28,0.03468,2.54927e-05,2.83981e-15,0,4.64233e+15,8.81214e+15,6.64677e+10,1.34545e+16
9.25e+06,159207,4.02852e+06,5.3163e+26,1.31354e+22,6.27988e+12,4.26767,7.05212e+28,0.03468,2.54933e-05,2.84004e-15,0,4.63934e+15,8.80701e+15,6.64158e+10,1.34464e+16
9.35e+06,159145,4.02772e+06,5.48931e+26,1.35533e+22,6.34783e+12,4.26945,7.03822e+28,0.03468,2.54928e-05,2.83982e-15,0,4.63632e+15,8.80183e+15,6.63634e+10,1.34382e+16
9.45e+06,159082,4.02692e+06,5.66599e+26,1.39797e+22,6.41578e+12,4.27125,7.0242e+28,0.03468,2.5492e-05,2.83947e-15,0,4.63326e+15,8.7966e+15,6.63104e+10,1.34299e+16
9.55e+06,159019,4.02611e+06,5.84637e+26,1.44144e+22,6.48373e+12,4.27308,7.01007e+28,0.03468,2.54915e-05,2.83928e-15,0,4.63018e+15,8.79131e+15,6.6257e+10,1.34216e+16
9.65e+06,158954,4.02529e+06,6.0305e+26,1.48576e+22,6.55168e+12,4.27492,6.99581e+28,0.03468,2.54902e-05,2.83874e-15,0,4.62707e+15,8.78597e+15,6.6203e+10,1.34131e+16
9.75e+06,158890,4.02446e+06,6.2184e+26,1.53094e+22,6.61963e+12,4.27678,6.98143e+28,0.03468,2.54882e-05,2.83797e-15,0,4.62392e+15,8.78058e+15,6.61485e+10,1.34046e+16
9.85e+06,158824,4.02362e+06,6.41013e+26,1.57698e+22,6.68759e+12,4.27866,6.96694e+28,0.03468,2.54888e-05,2.83821e-15,0,4.62075e+15,8.77514e+15,6.60935e+10,1.33959e+16
9.95e+06,158758,4.02278e+06,6.6057e+26,1.62388e+22,6.75554e+12,4.28056,6.95233e+28,0.03468,2.54883e-05,2.83797e-15,0,4.61754e+15,8.76964e+15,6.60379e+10,1.33872e+16
1.005e+07,158691,4.02192e+06,6.80516e+26,1.67165e+22,6.8235e+12,4.28248,6.9376e+28,0.03468,2.54874e-05,2.8376e-15,0,4.61431e+15,8.76409e+15,6.59819e+10,1.33785e+16
1.015e+07,158624,4.02106e+06,7.00855e+26,1.72031e+22,6.89146e+12,4.28442,6.92276e+28,0.03468,2.54869e-05,2.8374e-15,0,4.61104e+15,8.75849e+15,6.59253e+10,1.33696e+16
1.025e+07,158556,4.02019e+06,7.21589e+26,1.76984e+22,6.95942e+12,4.28638,6.9078e+28,0.03468,2.54855e-05,2.83681e-15,0,4.60774e+15,8.75284e+15,6.58683e+10,1.33607e+16
1.035e+07,158487,4.01931e+06,7.42723e+26,1.82027e+22,7.02739e+12,4.28836,6.89273e+28,0.03468,2.54833e-05,2.83599e-15,0,4.60442e+15,8.74714e+15,6.58107e+10,1.33516e+16
1.045e+07,158418,4.01842e+06,7.6426e+26,1.87159e+22,7.09536e+12,4.29036,6.87754e+28,0.03468,2.5484e-05,2.83625e-15,0,4.60106e+15,8.74138e+15,6.57526e+10,1.33425e+16
1.055e+07,158348,4.01753e+06,7.86203e+26,1.9238e+22,7.16332e+12,4.29238,6.86225e+28,0.03468,2.54834e-05,2.836e-15,0,4.59768e+15,8.73558e+15,6.5694e+10,1.33333e+16
1.065e+07,158277,4.01662e+06,8.08557e+26,1.97693e+22,7.2313e+12,4.29442,6.84684e+28,0.03468,2.54825e-05,2.8356e-15,0,4.59427e+15,8.72972e+15,6.56349e+10,1.33241e+16
1.075e+07,158206,4.01571e+06,8.31324e+26,2.03096e+22,7.29927e+12,4.29648,6.83132e+28,0.03468,2.54819e-05,2.83538e-15,0,4.59082e+15,8.72381e+15,6.55753e+10,1.33147e+16
1.085e+07,158134,4.01479e+06,8.54508e+26,2.0859e+22,7.36724e+12,4.29856,6.8157e+28,0.03468,2.54804e-05,2.83476e-15,0,4.58735e+15,8.71785e+15,6.55152e+10,1.33053e+16
1.095e+07,158062,4.01386e+06,8.78112e+26,2.14177e+22,7.43522e+12,4.30067,6.79996e+28,0.03468,2.54781e-05,2.83388e-15,0,4.58384e+15,8.71184e+15,6.54546e+10,1.32958e+16
1.105e+07,157989,4.01293e+06,9.02141e+26,2.19856e+22,7.5032e+12,4.30279,6.78412e+28,0.03468,2.54789e-05,2.83416e-15,0,4.58031e+15,8.70578e+15,6.53936e+10,1.32862e+16
1.115e+07,157915,4.01198e+06,9.26597e+26,2.25628e+22,7.57118e+12,4.30493,6.76818e+28,0.03468,2.54782e-05,2.83389e-15,0,4.57675e+15,8.69967e+15,6.5332e+10,1.32765e+16
1.125e+07,157841,4.01103e+06,9.51484e+26,2.31494e+22,7.63916e+12,4.30709,6.75212e+28,0.03468,2.54772e-05,2.83346e-15,0,4.57316e+15,8.69351e+15,6.52699e+10,1.32667e+16
1.135e+07,157766,4.01007e+06,9.76805e+26,2.37453e+22,7.70715e+12,4.30928,6.73597e+28,0.03468,2.54766e-05,2.83323e-15,0,4.56954e+15,8.68729e+15,6.52073e+10,1.32569e+16
1.145e+07,157690,4.0091e+06,1.00256e+27,2.43507e+22,7.77514e+12,4.31148,6.71971e+28,0.03468,2.54751e-05,2.83257e-15,0,4.56589e+15,8.68103e+15,6.51442e+10,1.3247e+16
1.155e+07,157614,4.00812e+06,1.02876e+27,2.49655e+22,7.84312e+12,4.3137,6.70334e+28,0.03468,2.54726e-05,2.83164e-15,0,4.56221e+15,8.67472e+15,6.50807e+10,1.3237e+16
1.165e+07,157537,4.00713e+06,1.05541e+27,2.55899e+22,7.91112e+12,4.31595,6.68688e+28,0.03468,2.54734e-05,2.83193e-15,0,4.55851e+15,8.66835e+15,6.50166e+10,1.32269e+16
1.175e+07,157459,4.00614e+06,1.0825e+27,2.62238e+22,7.97911e+12,4.31821,6.67031e+28,0.03468,2.54727e-05,2.83165e-15,0,4.55477e+15,8.66194e+15,6.49521e+10,1.32168e+16
