X = 0.734
Y = 0.25
Z = 0.016
mu = 0.601142
Radius,Density,Temp,Mass,Lum,OptD,Kff,KH,Kes,PP,CNO,3a,Deg,Gas,Rad,TotPres
0,0,0,0,0,0,-nan,0,0.03468,0.00845501,1.14302e-05,1.19013e-49,0,0,0,0
1,887475,1.13382e+07,3.71745e+06,31473.6,337118,0.379862,1.84509e+33,0.03468,0.00845501,1.14302e-05,1.19013e-49,8.13041e+16,1.38173e+17,4.16747e+12,2.19481e+17
100026,887472,1.13382e+07,3.72037e+21,3.1498e+19,3.37207e+10,0.379864,1.84505e+33,0.03468,0.00845501,1.14302e-05,1.19013e-49,8.13035e+16,1.38172e+17,4.16743e+12,2.1948e+17
200036,887461,1.13381e+07,2.97553e+22,2.51914e+20,6.74358e+10,0.379869,1.84494e+33,0.03468,0.00845501,1.14302e-05,1.19013e-49,8.13019e+16,1.38169e+17,4.16733e+12,2.19476e+17
300075,887444,1.1338e+07,1.00444e+23,8.50346e+20,1.01161e+11,0.379877,1.84476e+33,0.03468,0.00845501,1.14302e-05,1.19013e-49,8.12993e+16,1.38165e+17,4.16717e+12,2.19469e+17
400340,887420,1.13379e+07,2.38515e+23,2.01914e+21,1.34962e+11,0.379888,1.8445e+33,0.03468,0.00845501,1.14302e-05,1.19013e-49,8.12955e+16,1.3816e+17,4.16693e+12,2.19459e+17
500508,887388,1.13377e+07,4.66072e+23,3.94526e+21,1.68731e+11,0.379903,1.84417e+33,0.03468,0.00845501,1.14302e-05,1.19013e-49,8.12907e+16,1.38152e+17,4.16663e+12,2.19447e+17
600559,887350,1.13374e+07,8.05146e+23,6.81495e+21,2.0246e+11,0.379921,1.84376e+33,0.03468,0.00845501,1.14302e-05,1.19013e-49,8.12849e+16,1.38143e+17,4.16626e+12,2.19432e+17
700970,887304,1.13371e+07,1.28024e+24,1.08353e+22,2.36311e+11,0.379942,1.84328e+33,0.03468,0.00845501,1.14302e-05,1.19013e-49,8.12779e+16,1.38132e+17,4.16582e+12,2.19415e+17
801240,887252,1.13368e+07,1.91191e+24,1.61796e+22,2.70115e+11,0.379966,1.84272e+33,0.03468,0.00845501,1.14302e-05,1.19013e-49,8.12699e+16,1.3812e+17,4.16532e+12,2.19394e+17
901602,887192,1.13364e+07,2.724e+24,2.30491e+22,3.0395e+11,0.379994,1.84209e+33,0.03468,0.00845501,1.14302e-05,1.19013e-49,8.12609e+16,1.38106e+17,4.16475e+12,2.19371e+17
1.00174e+06,887126,1.1336e+07,3.73598e+24,3.16077e+22,3.37708e+11,0.380025,1.84139e+33,0.03468,0.00845501,1.14302e-05,1.19013e-49,8.12507e+16,1.38091e+17,4.16411e+12,2.19345e+17
1.10224e+06,887053,1.13355e+07,4.97684e+24,4.20993e+22,3.71592e+11,0.38006,1.84061e+33,0.03468,0.00845501,1.14302e-05,1.19013e-49,8.12395e+16,1.38073e+17,4.16341e+12,2.19317e+17
1.20291e+06,886972,1.13349e+07,6.46843e+24,5.47076e+22,4.05531e+11,0.380097,1.83975e+33,0.03468,0.00845501,1.14302e-05,1.19013e-49,8.12272e+16,1.38054e+17,4.16263e+12,2.19286e+17
1.30301e+06,886885,1.13344e+07,8.2208e+24,6.95159e+22,4.39277e+11,0.380138,1.83883e+33,0.03468,0.00845501,1.14302e-05,1.19013e-49,8.12138e+16,1.38034e+17,4.16179e+12,2.19252e+17
1.40303e+06,886790,1.13338e+07,1.02623e+25,8.67622e+22,4.72998e+11,0.380182,1.83783e+33,0.03468,0.00845501,1.14302e-05,1.19013e-49,8.11995e+16,1.38012e+17,4.16089e+12,2.19215e+17
1.50398e+06,886688,1.13331e+07,1.26397e+25,1.06839e+23,5.07032e+11,0.38023,1.83676e+33,0.03468,0.00845501,1.14302e-05,1.19013e-49,8.11839e+16,1.37988e+17,4.15991e+12,2.19176e+17
1.60498e+06,886579,1.13324e+07,1.536e+25,1.29804e+23,5.41085e+11,0.380281,1.8356e+33,0.03468,0.00845501,1.14302e-05,1.19013e-49,8.11672e+16,1.37962e+17,4.15886e+12,2.19133e+17
1.70511e+06,886464,1.13316e+07,1.84165e+25,1.55597e+23,5.74845e+11,0.380335,1.83438e+33,0.03468,0.00845501,1.14302e-05,1.19013e-49,8.11496e+16,1.37935e+17,4.15776e+12,2.19089e+17
1.80609e+06,886340,1.13308e+07,2.18842e+25,1.84847e+23,6.0889e+11,0.380392,1.83308e+33,0.03468,0.00845501,1.14302e-05,1.19013e-49,8.11308e+16,1.37906e+17,4.15657e+12,2.19041e+17
1.90735e+06,886210,1.133e+07,2.57729e+25,2.17634e+23,6.4303e+11,0.380453,1.8317e+33,0.03468,0.00845501,1.14302e-05,1.19013e-49,8.11109e+16,1.37875e+17,4.15532e+12,2.1899e+17
2.00828e+06,886072,1.13291e+07,3.00817e+25,2.53948e+23,6.77059e+11,0.380518,1.83026e+33,0.03468,0.00845501,1.14302e-05,1.19013e-49,8.10899e+16,1.37843e+17,4.154e+12,2.18937e+17
2.10981e+06,885927,1.13281e+07,3.48757e+25,2.9433e+23,7.11295e+11,0.380586,1.82872e+33,0.03468,0.00845501,1.14302e-05,1.19013e-49,8.10678e+16,1.37809e+17,4.15261e+12,2.1888e+17
2.20988e+06,885777,1.13271e+07,4.0073e+25,3.38086e+23,7.45034e+11,0.380656,1.82714e+33,0.03468,0.00845501,1.14302e-05,1.19013e-49,8.10449e+16,1.37773e+17,4.15117e+12,2.18822e+17
2.31124e+06,885618,1.13261e+07,4.58388e+25,3.86604e+23,7.7921e+11,0.380731,1.82547e+33,0.03468,0.00845501,1.14302e-05,1.19013e-49,8.10206e+16,1.37736e+17,4.14964e+12,2.18761e+17
2.41184e+06,885453,1.1325e+07,5.20831e+25,4.39118e+23,8.13132e+11,0.380808,1.82373e+33,0.03468,0.00845501,1.14302e-05,1.19013e-49,8.09954e+16,1.37697e+17,4.14806e+12,2.18697e+17
2.51307e+06,885279,1.13239e+07,5.89134e+25,4.96527e+23,8.47265e+11,0.380889,1.82191e+33,0.03468,0.00845501,1.14302e-05,1.19013e-49,8.0969e+16,1.37656e+17,4.1464e+12,2.18629e+17
2.61465e+06,885099,1.13227e+07,6.63414e+25,5.58923e+23,8.81516e+11,0.380974,1.82002e+33,0.03468,0.00845501,1.14302e-05,1.19013e-49,8.09415e+16,1.37614e+17,4.14467e+12,2.18559e+17
2.71627e+06,884910,1.13215e+07,7.43721e+25,6.26336e+23,9.15784e+11,0.381062,1.81804e+33,0.03468,0.00845501,1.14302e-05,1.19013e-49,8.09128e+16,1.3757e+17,4.14287e+12,2.18487e+17
2.81764e+06,884716,1.13202e+07,8.3002e+25,6.98733e+23,9.49966e+11,0.381154,1.816e+33,0.03468,0.00845501,1.14302e-05,1.19013e-49,8.08831e+16,1.37524e+17,4.141e+12,2.18411e+17
2.91843e+06,884515,1.13189e+07,9.22192e+25,7.76004e+23,9.83954e+11,0.381248,1.8139e+33,0.03468,0.00845501,1.14302e-05,1.19013e-49,8.08525e+16,1.37477e+17,4.13908e+12,2.18333e+17
3.02057e+06,884305,1.13175e+07,1.02231e+26,8.59874e+23,1.0184e+12,0.381347,1.8117e+33,0.03468,0.00845501,1.14302e-05,1.19013e-49,8.08205e+16,1.37427e+17,4.13707e+12,2.18252e+17
3.12163e+06,884089,1.13161e+07,1.12822e+26,9.48538e+23,1.05248e+12,0.381448,1.80945e+33,0.03468,0.00845501,1.14302e-05,1.19013e-49,8.07877e+16,1.37377e+17,4.13501e+12,2.18169e+17
3.22367e+06,883865,1.13146e+07,1.24233e+26,1.04398e+24,1.08689e+12,0.381553,1.80711e+33,0.03468,0.00845501,1.14302e-05,1.19013e-49,8.07535e+16,1.37324e+17,4.13286e+12,2.18082e+17
3.32408e+06,883637,1.13131e+07,1.36185e+26,1.14389e+24,1.12075e+12,0.381661,1.80473e+33,0.03468,0.00845501,1.14302e-05,1.19013e-49,8.07188e+16,1.37271e+17,4.13068e+12,2.17993e+17
3.42506e+06,883401,1.13116e+07,1.48954e+26,1.25053e+24,1.15481e+12,0.381772,1.80227e+33,0.03468,0.00845501,1.14302e-05,1.19013e-49,8.06828e+16,1.37215e+17,4.12842e+12,2.17902e+17
3.52649e+06,883156,1.131e+07,1.62555e+26,1.36402e+24,1.18902e+12,0.381887,1.79973e+33,0.03468,0.00845501,1.14302e-05,1.19013e-49,8.06457e+16,1.37158e+17,4.12609e+12,2.17807e+17
3.62821e+06,882904,1.13083e+07,1.77001e+26,1.48447e+24,1.22332e+12,0.382006,1.79711e+33,0.03468,0.00845501,1.14302e-05,1.19013e-49,8.06073e+16,1.37099e+17,4.12368e+12,2.1771e+17
3.73008e+06,882645,1.13066e+07,1.923e+26,1.6119e+24,1.25768e+12,0.382128,1.79442e+33,0.03468,0.00845501,1.14302e-05,1.19013e-49,8.05678e+16,1.37038e+17,4.1212e+12,2.1761e+17
3.83196e+06,882378,1.13049e+07,2.08453e+26,1.74634e+24,1.29205e+12,0.382254,1.79165e+33,0.03468,0.00845501,1.14302e-05,1.19013e-49,8.05272e+16,1.36975e+17,4.11865e+12,2.17506e+17
3.93369e+06,882105,1.13031e+07,2.25457e+26,1.88773e+24,1.32636e+12,0.382383,1.78882e+33,0.03468,0.00845501,1.14302e-05,1.19013e-49,8.04856e+16,1.36911e+17,4.11604e+12,2.17401e+17
4.03511e+06,881825,1.13013e+07,2.43303e+26,2.03597e+24,1.36057e+12,0.382515,1.78593e+33,0.03468,0.00845501,1.14302e-05,1.19013e-49,8.04431e+16,1.36845e+17,4.11338e+12,2.17293e+17
4.13606e+06,881540,1.12994e+07,2.61974e+26,2.19091e+24,1.39462e+12,0.38265,1.78299e+33,0.03468,0.00845501,1.14302e-05,1.19013e-49,8.03998e+16,1.36778e+17,4.11066e+12,2.17182e+17
4.23638e+06,881249,1.12975e+07,2.81446e+26,2.35234e+24,1.42846e+12,0.382788,1.77999e+33,0.03468,0.00845501,1.14302e-05,1.19013e-49,8.03556e+16,1.3671e+17,4.10789e+12,2.1707e+17
4.33914e+06,880945,1.12955e+07,3.02366e+26,2.5256e+24,1.46313e+12,0.382932,1.77685e+33,0.03468,0.00845501,1.14302e-05,1.19013e-49,8.03093e+16,1.36639e+17,4.10498e+12,2.16952e+17
4.44108e+06,880635,1.12935e+07,3.24113e+26,2.70551e+24,1.49752e+12,0.383078,1.77368e+33,0.03468,0.00845501,1.14302e-05,1.19013e-49,8.02624e+16,1.36566e+17,4.10204e+12,2.16833e+17
4.54203e+06,880322,1.12914e+07,3.46647e+26,2.89174e+24,1.53157e+12,0.383227,1.77046e+33,0.03468,0.00845501,1.14302e-05,1.19013e-49,8.02148e+16,1.36493e+17,4.09905e+12,2.16712e+17
4.64529e+06,879995,1.12893e+07,3.70748e+26,3.09069e+24,1.56641e+12,0.383382,1.7671e+33,0.03468,0.00845501,1.14302e-05,1.19013e-49,8.01651e+16,1.36416e+17,4.09593e+12,2.16585e+17
4.74735e+06,879664,1.12871e+07,3.95637e+26,3.29591e+24,1.60084e+12,0.383539,1.76371e+33,0.03468,0.00845501,1.14302e-05,1.19013e-49,8.01148e+16,1.36339e+17,4.09279e+12,2.16458e+17
4.84804e+06,879331,1.12849e+07,4.21252e+26,3.50688e+24,1.63481e+12,0.383698,1.76031e+33,0.03468,0.00845501,1.14302e-05,1.19013e-49,8.00642e+16,1.36261e+17,4.08961e+12,2.16329e+17
4.95088e+06,878983,1.12826e+07,4.48526e+26,3.73124e+24,1.66951e+12,0.383863,1.75676e+33,0.03468,0.00845501,1.14302e-05,1.19013e-49,8.00115e+16,1.36179e+17,4.08631e+12,2.16195e+17
5.05212e+06,878634,1.12803e+07,4.76496e+26,3.96105e+24,1.70367e+12,0.384029,1.75321e+33,0.03468,0.00845501,1.14302e-05,1.19013e-49,7.99586e+16,1.36098e+17,4.08299e+12,2.1606e+17
5.15546e+06,878270,1.1278e+07,5.06211e+26,4.20489e+24,1.73854e+12,0.384202,1.74951e+33,0.03468,0.00845501,1.14302e-05,1.19013e-49,7.99034e+16,1.36013e+17,4.07954e+12,2.1592e+17
5.25698e+06,877906,1.12756e+07,5.36576e+26,4.45375e+24,1.7728e+12,0.384376,1.74581e+33,0.03468,0.00845501,1.14302e-05,1.19013e-49,7.98482e+16,1.35927e+17,4.07608e+12,2.1578e+17
5.36052e+06,877528,1.12731e+07,5.68761e+26,4.7172e+24,1.80774e+12,0.384556,1.74198e+33,0.03468,0.00845501,1.14302e-05,1.19013e-49,7.97909e+16,1.35839e+17,4.07249e+12,2.15634e+17
5.46201e+06,877150,1.12706e+07,6.01528e+26,4.98505e+24,1.84199e+12,0.384737,1.73815e+33,0.03468,0.00845501,1.14302e-05,1.19013e-49,7.97336e+16,1.3575e+17,4.0689e+12,2.15488e+17
5.56545e+06,876758,1.1268e+07,6.36183e+26,5.26795e+24,1.8769e+12,0.384925,1.73419e+33,0.03468,0.00845501,1.14302e-05,1.19013e-49,7.96742e+16,1.35659e+17,4.06518e+12,2.15337e+17
5.66661e+06,876367,1.12654e+07,6.71329e+26,5.55447e+24,1.91104e+12,0.385112,1.73025e+33,0.03468,0.00845501,1.14302e-05,1.19013e-49,7.9615e+16,1.35567e+17,4.06148e+12,2.15186e+17
5.76963e+06,875962,1.12628e+07,7.08416e+26,5.85639e+24,1.94581e+12,0.385305,1.72618e+33,0.03468,0.00845501,1.14302e-05,1.19013e-49,7.95537e+16,1.35473e+17,4.05764e+12,2.1503e+17
5.87013e+06,875560,1.12601e+07,7.45879e+26,6.16095e+24,1.97973e+12,0.385498,1.72214e+33,0.03468,0.00845501,1.14302e-05,1.19013e-49,7.94929e+16,1.35379e+17,4.05383e+12,2.14876e+17
5.9724e+06,875144,1.12574e+07,7.85323e+26,6.48116e+24,2.01425e+12,0.385698,1.71797e+33,0.03468,0.00845501,1.14302e-05,1.19013e-49,7.943e+16,1.35282e+17,4.0499e+12,2.14716e+17
6.07647e+06,874714,1.12546e+07,8.26853e+26,6.8178e+24,2.04938e+12,0.385904,1.71367e+33,0.03468,0.00845501,1.14302e-05,1.19013e-49,7.93649e+16,1.35181e+17,4.04583e+12,2.1455e+17
6.17774e+06,874288,1.12518e+07,8.68631e+26,7.15594e+24,2.08356e+12,0.386109,1.70942e+33,0.03468,0.00845501,1.14302e-05,1.19013e-49,7.93005e+16,1.35082e+17,4.0418e+12,2.14386e+17
6.28071e+06,873849,1.12489e+07,9.12519e+26,7.51064e+24,2.11832e+12,0.386321,1.70504e+33,0.03468,0.00845501,1.14302e-05,1.19013e-49,7.92341e+16,1.34979e+17,4.03765e+12,2.14217e+17
6.38542e+06,873394,1.12459e+07,9.58626e+26,7.88267e+24,2.15367e+12,0.38654,1.70052e+33,0.03468,0.00845501,1.14302e-05,1.19013e-49,7.91654e+16,1.34873e+17,4.03335e+12,2.14042e+17
6.48702e+06,872946,1.12429e+07,1.00481e+27,8.25473e+24,2.18797e+12,0.386756,1.69607e+33,0.03468,0.00845501,1.14302e-05,1.19013e-49,7.90977e+16,1.34768e+17,4.02912e+12,2.1387e+17
6.59026e+06,872484,1.12399e+07,1.05321e+27,8.64409e+24,2.22283e+12,0.386979,1.6915e+33,0.03468,0.00845501,1.14302e-05,1.19013e-49,7.9028e+16,1.34661e+17,4.02476e+12,2.13693e+17
6.69516e+06,872007,1.12368e+07,1.10395e+27,9.05154e+24,2.25825e+12,0.387209,1.68679e+33,0.03468,0.00845501,1.14302e-05,1.19013e-49,7.8956e+16,1.34549e+17,4.02027e+12,2.13509e+17
6.79664e+06,871539,1.12337e+07,1.15455e+27,9.45715e+24,2.29251e+12,0.387436,1.68217e+33,0.03468,0.00845501,1.14302e-05,1.19013e-49,7.88854e+16,1.3444e+17,4.01585e+12,2.1333e+17
6.89969e+06,871057,1.12305e+07,1.20746e+27,9.88064e+24,2.32731e+12,0.38767,1.67743e+33,0.03468,0.00845501,1.14302e-05,1.19013e-49,7.88126e+16,1.34328e+17,4.01131e+12,2.13144e+17
7.00432e+06,870560,1.12272e+07,1.2628e+27,1.03228e+25,2.36264e+12,0.387911,1.67256e+33,0.03468,0.00845501,1.14302e-05,1.19013e-49,7.87377e+16,1.34212e+17,4.00663e+12,2.12954e+17
7.10521e+06,870074,1.1224e+07,1.31771e+27,1.07608e+25,2.39671e+12,0.388146,1.6678e+33,0.03468,0.00845501,1.14302e-05,1.19013e-49,7.86645e+16,1.34099e+17,4.00206e+12,2.12767e+17
7.20758e+06,869574,1.12207e+07,1.37502e+27,1.12171e+25,2.43129e+12,0.388389,1.66292e+33,0.03468,0.00845501,1.14302e-05,1.19013e-49,7.85892e+16,1.33982e+17,3.99736e+12,2.12576e+17
7.31145e+06,869060,1.12173e+07,1.43482e+27,1.16924e+25,2.46637e+12,0.38864,1.65791e+33,0.03468,0.00845501,1.14302e-05,1.19013e-49,7.85117e+16,1.33863e+17,3.99253e+12,2.12379e+17
7.41684e+06,868531,1.12138e+07,1.49722e+27,1.21875e+25,2.50196e+12,0.388898,1.65277e+33,0.03468,0.00845501,1.14302e-05,1.19013e-49,7.84321e+16,1.3374e+17,3.98757e+12,2.12176e+17
7.5181e+06,868016,1.12104e+07,1.55883e+27,1.26754e+25,2.53617e+12,0.389149,1.64778e+33,0.03468,0.00845501,1.14302e-05,1.19013e-49,7.83546e+16,1.3362e+17,3.98273e+12,2.11978e+17
7.62078e+06,867487,1.12069e+07,1.62299e+27,1.31825e+25,2.57085e+12,0.389407,1.64266e+33,0.03468,0.00845501,1.14302e-05,1.19013e-49,7.8275e+16,1.33497e+17,3.97777e+12,2.11776e+17
7.72488e+06,866944,1.12034e+07,1.68978e+27,1.37095e+25,2.60602e+12,0.389673,1.63742e+33,0.03468,0.00845501,1.14302e-05,1.19013e-49,7.81934e+16,1.3337e+17,3.97268e+12,2.11568e+17
7.83044e+06,866386,1.11997e+07,1.75932e+27,1.42571e+25,2.64168e+12,0.389946,1.63205e+33,0.03468,0.00845501,1.14302e-05,1.19013e-49,7.81095e+16,1.33241e+17,3.96745e+12,2.11354e+17
7.93148e+06,865845,1.11961e+07,1.82762e+27,1.47939e+25,2.67582e+12,0.390212,1.62686e+33,0.03468,0.00845501,1.14302e-05,1.19013e-49,7.80282e+16,1.33115e+17,3.96239e+12,2.11147e+17
8.03385e+06,865290,1.11924e+07,1.89858e+27,1.53504e+25,2.71041e+12,0.390484,1.62155e+33,0.03468,0.00845501,1.14302e-05,1.19013e-49,7.79449e+16,1.32986e+17,3.9572e+12,2.10935e+17
8.13756e+06,864721,1.11887e+07,1.97229e+27,1.59275e+25,2.74545e+12,0.390764,1.61612e+33,0.03468,0.00845501,1.14302e-05,1.19013e-49,7.78595e+16,1.32854e+17,3.95188e+12,2.10718e+17
8.24265e+06,864137,1.11848e+07,2.04886e+27,1.65257e+25,2.78096e+12,0.391051,1.61057e+33,0.03468,0.00845501,1.14302e-05,1.19013e-49,7.77719e+16,1.32719e+17,3.94643e+12,2.10495e+17
8.34282e+06,863575,1.11811e+07,2.12364e+27,1.71087e+25,2.81481e+12,0.391329,1.60522e+33,0.03468,0.00845501,1.14302e-05,1.19013e-49,7.76875e+16,1.32588e+17,3.94118e+12,2.1028e+17
8.44423e+06,862998,1.11773e+07,2.20115e+27,1.77118e+25,2.84909e+12,0.391614,1.59977e+33,0.03468,0.00845501,1.14302e-05,1.19013e-49,7.76011e+16,1.32454e+17,3.9358e+12,2.10059e+17
8.54691e+06,862408,1.11734e+07,2.28149e+27,1.83357e+25,2.88379e+12,0.391905,1.59419e+33,0.03468,0.00845501,1.14302e-05,1.19013e-49,7.75127e+16,1.32317e+17,3.9303e+12,2.09834e+17
8.65086e+06,861804,1.11694e+07,2.36476e+27,1.89809e+25,2.91892e+12,0.392205,1.5885e+33,0.03468,0.00845501,1.14302e-05,1.19013e-49,7.74222e+16,1.32177e+17,3.92467e+12,2.09603e+17
8.75611e+06,861185,1.11653e+07,2.45107e+27,1.96483e+25,2.9545e+12,0.392512,1.58269e+33,0.03468,0.00845501,1.14302e-05,1.19013e-49,7.73295e+16,1.32034e+17,3.91891e+12,2.09367e+17
8.86267e+06,860551,1.11611e+07,2.54053e+27,2.03384e+25,2.99052e+12,0.392826,1.57676e+33,0.03468,0.00845501,1.14302e-05,1.19013e-49,7.72347e+16,1.31887e+17,3.91302e+12,2.09126e+17
8.96378e+06,859943,1.1157e+07,2.62737e+27,2.10068e+25,3.0247e+12,0.393129,1.57109e+33,0.03468,0.00845501,1.14302e-05,1.19013e-49,7.71438e+16,1.31746e+17,3.90737e+12,2.08894e+17
9.06607e+06,859321,1.11529e+07,2.71717e+27,2.16966e+25,3.05928e+12,0.393438,1.56531e+33,0.03468,0.00845501,1.14302e-05,1.19013e-49,7.70508e+16,1.31602e+17,3.90159e+12,2.08657e+17
9.16955e+06,858685,1.11487e+07,2.81004e+27,2.24083e+25,3.09427e+12,0.393756,1.55941e+33,0.03468,0.00845501,1.14302e-05,1.19013e-49,7.69559e+16,1.31455e+17,3.8957e+12,2.08415e+17
9.27425e+06,858035,1.11444e+07,2.90608e+27,2.31427e+25,3.12967e+12,0.39408,1.5534e+33,0.03468,0.00845501,1.14302e-05,1.19013e-49,7.68588e+16,1.31305e+17,3.88967e+12,2.08168e+17
9.38018e+06,857371,1.114e+07,3.00541e+27,2.39004e+25,3.16549e+12,0.394413,1.54727e+33,0.03468,0.00845501,1.14302e-05,1.19013e-49,7.67596e+16,1.31151e+17,3.88351e+12,2.07915e+17
9.48735e+06,856691,1.11354e+07,3.10813e+27,2.46822e+25,3.20173e+12,0.394754,1.54103e+33,0.03468,0.00845501,1.14302e-05,1.19013e-49,7.66582e+16,1.30994e+17,3.87722e+12,2.07656e+17
9.58852e+06,856043,1.11311e+07,3.20717e+27,2.54341e+25,3.23595e+12,0.395079,1.53509e+33,0.03468,0.00845501,1.14302e-05,1.19013e-49,7.65616e+16,1.30845e+17,3.87123e+12,2.0741e+17
9.69079e+06,855381,1.11267e+07,3.30937e+27,2.62082e+25,3.27054e+12,0.395412,1.52905e+33,0.03468,0.00845501,1.14302e-05,1.19013e-49,7.6463e+16,1.30692e+17,3.86512e+12,2.07159e+17
9.79419e+06,854706,1.11223e+07,3.41482e+27,2.7005e+25,3.30551e+12,0.395752,1.52291e+33,0.03468,0.00845501,1.14302e-05,1.19013e-49,7.63624e+16,1.30536e+17,3.85888e+12,2.06902e+17
9.89873e+06,854016,1.11177e+07,3.52363e+27,2.78253e+25,3.34087e+12,0.3961,1.51665e+33,0.03468,0.00845501,1.14302e-05,1.19013e-49,7.62597e+16,1.30377e+17,3.85252e+12,2.0664e+17
1.00044e+07,853312,1.1113e+07,3.63591e+27,2.86695e+25,3.37662e+12,0.396456,1.51029e+33,0.03468,0.00845501,1.14302e-05,1.19013e-49,7.6155e+16,1.30214e+17,3.84603e+12,2.06373e+17
1.01113e+07,852593,1.11082e+07,3.75177e+27,2.95385e+25,3.41277e+12,0.396819,1.50381e+33,0.03468,0.00845501,1.14302e-05,1.19013e-49,7.60481e+16,1.30049e+17,3.83941e+12,2.06101e+17
1.02115e+07,851912,1.11037e+07,3.86265e+27,3.03681e+25,3.4467e+12,0.397165,1.49769e+33,0.03468,0.00845501,1.14302e-05,1.19013e-49,7.59469e+16,1.29892e+17,3.83314e+12,2.05842e+17
1.03128e+07,851218,1.1099e+07,3.97682e+27,3.12201e+25,3.48097e+12,0.397517,1.49148e+33,0.03468,0.00845501,1.14302e-05,1.19013e-49,7.58437e+16,1.29732e+17,3.82676e+12,2.05579e+17
1.04152e+07,850510,1.10943e+07,4.09435e+27,3.2095e+25,3.5156e+12,0.397877,1.48517e+33,0.03468,0.00845501,1.14302e-05,1.19013e-49,7.57387e+16,1.29569e+17,3.82026e+12,2.05311e+17
1.05186e+07,849789,1.10895e+07,4.21536e+27,3.29936e+25,3.55059e+12,0.398245,1.47876e+33,0.03468,0.00845501,1.14302e-05,1.19013e-49,7.56316e+16,1.29403e+17,3.81364e+12,2.05038e+17
1.0623e+07,849053,1.10846e+07,4.33995e+27,3.39162e+25,3.58594e+12,0.39862,1.47224e+33,0.03468,0.00845501,1.14302e-05,1.19013e-49,7.55226e+16,1.29234e+17,3.8069e+12,2.0476e+17
1.07285e+07,848304,1.10796e+07,4.46822e+27,3.48637e+25,3.62166e+12,0.399004,1.46563e+33,0.03468,0.00845501,1.14302e-05,1.19013e-49,7.54114e+16,1.29061e+17,3.80003e+12,2.04477e+17
1.08352e+07,847539,1.10745e+07,4.60028e+27,3.58364e+25,3.65775e+12,0.399396,1.45891e+33,0.03468,0.00845501,1.14302e-05,1.19013e-49,7.52982e+16,1.28886e+17,3.79303e+12,2.04188e+17
1.09429e+07,846760,1.10693e+07,4.73624e+27,3.68351e+25,3.69421e+12,0.399796,1.45208e+33,0.03468,0.00845501,1.14302e-05,1.19013e-49,7.51829e+16,1.28707e+17,3.78591e+12,2.03893e+17
1.10433e+07,846027,1.10644e+07,4.86531e+27,3.77807e+25,3.72821e+12,0.400172,1.44569e+33,0.03468,0.00845501,1.14302e-05,1.19013e-49,7.50745e+16,1.28538e+17,3.77922e+12,2.03617e+17
1.11447e+07,845282,1.10594e+07,4.9979e+27,3.87493e+25,3.76253e+12,0.400557,1.4392e+33,0.03468,0.00845501,1.14302e-05,1.19013e-49,7.49642e+16,1.28367e+17,3.77241e+12,2.03335e+17
1.1247e+07,844523,1.10543e+07,5.1341e+27,3.97417e+25,3.79718e+12,0.400948,1.43262e+33,0.03468,0.00845501,1.14302e-05,1.19013e-49,7.48521e+16,1.28193e+17,3.76549e+12,2.03049e+17
