X = 0.734
Y = 0.25
Z = 0.016
mu = 0.601142
Radius,Density,Temp,Mass,Lum,OptD,Kff,KH,Kes,PP,CNO,3a,Deg,Gas,Rad,TotPres
0,0,0,0,0,0,-nan,0,0.03468,8.05469e-05,5.01906e-12,1.64165e-63,0,0,0,0
1,104232,6.05088e+06,436605,35.1672,79627.3,0.763945,2.22021e+30,0.03468,8.05469e-05,5.01906e-12,1.64165e-63,2.29009e+15,8.66042e+15,3.38036e+11,1.09508e+16
30001,104232,6.05087e+06,1.17895e+19,9.49608e+14,2.3889e+09,0.763945,2.22021e+30,0.03468,8.05469e-05,5.01906e-12,1.64165e-63,2.29009e+15,8.66042e+15,3.38036e+11,1.09508e+16
70001,104232,6.05087e+06,1.49762e+20,1.20628e+16,5.57399e+09,0.763946,2.2202e+30,0.03468,8.05469e-05,5.01906e-12,1.64165e-63,2.29008e+15,8.66041e+15,3.38036e+11,1.09508e+16
150001,104231,6.05087e+06,1.47357e+21,1.18691e+17,1.19442e+10,0.763947,2.22018e+30,0.03468,8.05469e-05,5.01906e-12,1.64165e-63,2.29008e+15,8.66038e+15,3.38034e+11,1.09508e+16
250001,104231,6.05085e+06,6.822e+21,5.49484e+17,1.99069e+10,0.76395,2.22013e+30,0.03468,8.05469e-05,5.01906e-12,1.64165e-63,2.29006e+15,8.66032e+15,3.38031e+11,1.09507e+16
350001,104230,6.05083e+06,1.87194e+22,1.50775e+18,2.78696e+10,0.763955,2.22006e+30,0.03468,8.05469e-05,5.01906e-12,1.64165e-63,2.29003e+15,8.66023e+15,3.38027e+11,1.09506e+16
450001,104229,6.05081e+06,3.97853e+22,3.20445e+18,3.58324e+10,0.763962,2.21996e+30,0.03468,8.05469e-05,5.01906e-12,1.64165e-63,2.28999e+15,8.66011e+15,3.38021e+11,1.09504e+16
550001,104228,6.05077e+06,7.2639e+22,5.85048e+18,4.37951e+10,0.763971,2.21983e+30,0.03468,8.05469e-05,5.01906e-12,1.64165e-63,2.28995e+15,8.65996e+15,3.38013e+11,1.09502e+16
650001,104226,6.05073e+06,1.199e+23,9.6567e+18,5.17578e+10,0.763981,2.21968e+30,0.03468,8.05469e-05,5.01906e-12,1.64165e-63,2.28989e+15,8.65978e+15,3.38004e+11,1.095e+16
750001,104225,6.05069e+06,1.84186e+23,1.48339e+19,5.97205e+10,0.763993,2.21951e+30,0.03468,8.05469e-05,5.01906e-12,1.64165e-63,2.28983e+15,8.65957e+15,3.37994e+11,1.09497e+16
850001,104223,6.05063e+06,2.68117e+23,2.15928e+19,6.76832e+10,0.764006,2.21931e+30,0.03468,8.05469e-05,5.01906e-12,1.64165e-63,2.28976e+15,8.65932e+15,3.37982e+11,1.09494e+16
950001,104221,6.05057e+06,3.74311e+23,3.0144e+19,7.56459e+10,0.764022,2.21909e+30,0.03468,8.05469e-05,5.01906e-12,1.64165e-63,2.28968e+15,8.65905e+15,3.37968e+11,1.09491e+16
1.05e+06,104218,6.05051e+06,5.05387e+23,4.06981e+19,8.36086e+10,0.764039,2.21884e+30,0.03468,8.05468e-05,5.01906e-12,1.64165e-63,2.28959e+15,8.65875e+15,3.37953e+11,1.09487e+16
1.15e+06,104215,6.05043e+06,6.63961e+23,5.34655e+19,9.15712e+10,0.764057,2.21857e+30,0.03468,8.05468e-05,5.01905e-12,1.64165e-63,2.28949e+15,8.65842e+15,3.37937e+11,1.09482e+16
1.25e+06,104212,6.05035e+06,8.52651e+23,6.86565e+19,9.95339e+10,0.764078,2.21827e+30,0.03468,8.05468e-05,5.01905e-12,1.64164e-63,2.28938e+15,8.65806e+15,3.37919e+11,1.09478e+16
1.35e+06,104209,6.05026e+06,1.07408e+24,8.64812e+19,1.07497e+11,0.7641,2.21795e+30,0.03468,8.05468e-05,5.01904e-12,1.64164e-63,2.28926e+15,8.65767e+15,3.37899e+11,1.09473e+16
1.45e+06,104206,6.05017e+06,1.33085e+24,1.0715e+20,1.15459e+11,0.764124,2.2176e+30,0.03468,8.05468e-05,5.01904e-12,1.64164e-63,2.28913e+15,8.65725e+15,3.37878e+11,1.09467e+16
1.55e+06,104202,6.05007e+06,1.62559e+24,1.30872e+20,1.23422e+11,0.764149,2.21723e+30,0.03468,8.05467e-05,5.01903e-12,1.64163e-63,2.289e+15,8.6568e+15,3.37856e+11,1.09461e+16
1.65e+06,104198,6.04996e+06,1.96091e+24,1.57857e+20,1.31384e+11,0.764176,2.21684e+30,0.03468,8.05467e-05,5.01902e-12,1.64162e-63,2.28885e+15,8.65631e+15,3.37832e+11,1.09455e+16
1.75e+06,104194,6.04985e+06,2.33942e+24,1.88316e+20,1.39347e+11,0.764205,2.21642e+30,0.03468,8.05466e-05,5.01901e-12,1.64162e-63,2.2887e+15,8.6558e+15,3.37806e+11,1.09448e+16
1.85e+06,104189,6.04973e+06,2.76375e+24,2.22456e+20,1.47309e+11,0.764236,2.21597e+30,0.03468,8.05465e-05,5.01897e-12,1.64159e-63,2.28854e+15,8.65526e+15,3.37779e+11,1.09441e+16
1.95e+06,104185,6.0496e+06,3.2365e+24,2.60488e+20,1.55272e+11,0.764268,2.2155e+30,0.03468,8.05463e-05,5.01895e-12,1.64157e-63,2.28837e+15,8.65469e+15,3.37751e+11,1.09434e+16
2.05e+06,104180,6.04947e+06,3.76029e+24,3.0262e+20,1.63235e+11,0.764302,2.21501e+30,0.03468,8.05464e-05,5.01895e-12,1.64157e-63,2.28819e+15,8.65409e+15,3.37721e+11,1.09426e+16
2.15e+06,104175,6.04932e+06,4.33773e+24,3.49061e+20,1.71197e+11,0.764338,2.21449e+30,0.03468,8.05463e-05,5.01893e-12,1.64155e-63,2.288e+15,8.65346e+15,3.3769e+11,1.09418e+16
2.25e+06,104169,6.04918e+06,4.97142e+24,4.00019e+20,1.79159e+11,0.764376,2.21394e+30,0.03468,8.05461e-05,5.01889e-12,1.64153e-63,2.2878e+15,8.6528e+15,3.37657e+11,1.09409e+16
2.35e+06,104164,6.04902e+06,5.66399e+24,4.55703e+20,1.87122e+11,0.764415,2.21337e+30,0.03468,8.0546e-05,5.01887e-12,1.64151e-63,2.28759e+15,8.65211e+15,3.37622e+11,1.094e+16
2.45e+06,104158,6.04886e+06,6.41804e+24,5.1632e+20,1.95084e+11,0.764456,2.21278e+30,0.03468,8.05456e-05,5.01879e-12,1.64146e-63,2.28738e+15,8.65139e+15,3.37586e+11,1.09391e+16
2.55e+06,104152,6.04869e+06,7.23618e+24,5.82079e+20,2.03047e+11,0.764498,2.21216e+30,0.03468,8.05452e-05,5.0187e-12,1.64139e-63,2.28715e+15,8.65063e+15,3.37549e+11,1.09381e+16
2.65e+06,104145,6.04852e+06,8.12102e+24,6.53186e+20,2.11009e+11,0.764542,2.21152e+30,0.03468,8.05453e-05,5.01872e-12,1.64141e-63,2.28692e+15,8.64985e+15,3.3751e+11,1.09371e+16
2.75e+06,104139,6.04834e+06,9.07516e+24,7.29849e+20,2.18971e+11,0.764588,2.21085e+30,0.03468,8.05452e-05,5.01868e-12,1.64138e-63,2.28667e+15,8.64904e+15,3.37469e+11,1.09361e+16
2.85e+06,104132,6.04815e+06,1.01012e+25,8.12274e+20,2.26934e+11,0.764636,2.21016e+30,0.03468,8.05449e-05,5.01862e-12,1.64134e-63,2.28642e+15,8.6482e+15,3.37427e+11,1.0935e+16
2.95e+06,104125,6.04796e+06,1.12018e+25,9.00668e+20,2.34896e+11,0.764686,2.20945e+30,0.03468,8.05447e-05,5.01858e-12,1.64131e-63,2.28616e+15,8.64733e+15,3.37384e+11,1.09338e+16
3.05e+06,104117,6.04775e+06,1.23795e+25,9.95238e+20,2.42858e+11,0.764737,2.20871e+30,0.03468,8.05442e-05,5.01847e-12,1.64123e-63,2.28589e+15,8.64643e+15,3.37339e+11,1.09327e+16
3.15e+06,104110,6.04755e+06,1.36369e+25,1.09619e+21,2.5082e+11,0.764789,2.20794e+30,0.03468,8.05435e-05,5.01832e-12,1.64112e-63,2.28561e+15,8.6455e+15,3.37293e+11,1.09314e+16
3.25e+06,104102,6.04733e+06,1.49766e+25,1.20372e+21,2.58783e+11,0.764844,2.20716e+30,0.03468,8.05437e-05,5.01837e-12,1.64115e-63,2.28532e+15,8.64454e+15,3.37245e+11,1.09302e+16
3.35e+06,104094,6.04711e+06,1.64013e+25,1.31805e+21,2.66745e+11,0.7649,2.20634e+30,0.03468,8.05435e-05,5.01831e-12,1.64112e-63,2.28503e+15,8.64355e+15,3.37196e+11,1.09289e+16
3.45e+06,104085,6.04688e+06,1.79135e+25,1.43938e+21,2.74707e+11,0.764958,2.20551e+30,0.03468,8.05432e-05,5.01823e-12,1.64105e-63,2.28472e+15,8.64253e+15,3.37145e+11,1.09276e+16
3.55e+06,104077,6.04665e+06,1.95158e+25,1.5679e+21,2.82669e+11,0.765018,2.20464e+30,0.03468,8.05429e-05,5.01818e-12,1.64102e-63,2.28441e+15,8.64148e+15,3.37092e+11,1.09262e+16
3.65e+06,104068,6.04641e+06,2.12108e+25,1.70383e+21,2.90631e+11,0.765079,2.20376e+30,0.03468,8.05423e-05,5.01803e-12,1.64091e-63,2.28408e+15,8.6404e+15,3.37038e+11,1.09248e+16
3.75e+06,104059,6.04616e+06,2.30012e+25,1.84737e+21,2.98593e+11,0.765142,2.20285e+30,0.03468,8.05413e-05,5.01783e-12,1.64077e-63,2.28375e+15,8.63929e+15,3.36983e+11,1.09234e+16
3.85e+06,104049,6.0459e+06,2.48894e+25,1.99872e+21,3.06555e+11,0.765207,2.20191e+30,0.03468,8.05416e-05,5.01789e-12,1.64081e-63,2.28341e+15,8.63815e+15,3.36926e+11,1.09219e+16
3.95e+06,104040,6.04564e+06,2.68782e+25,2.15808e+21,3.14517e+11,0.765274,2.20096e+30,0.03468,8.05413e-05,5.01782e-12,1.64076e-63,2.28306e+15,8.63698e+15,3.36868e+11,1.09204e+16
4.05e+06,104030,6.04537e+06,2.897e+25,2.32566e+21,3.22479e+11,0.765342,2.19997e+30,0.03468,8.05409e-05,5.01771e-12,1.64069e-63,2.2827e+15,8.63579e+15,3.36808e+11,1.09188e+16
4.15e+06,104020,6.0451e+06,3.11676e+25,2.50165e+21,3.30441e+11,0.765412,2.19897e+30,0.03468,8.05406e-05,5.01765e-12,1.64064e-63,2.28233e+15,8.63456e+15,3.36747e+11,1.09172e+16
4.25e+06,104010,6.04482e+06,3.34734e+25,2.68627e+21,3.38403e+11,0.765484,2.19794e+30,0.03468,8.05398e-05,5.01747e-12,1.64051e-63,2.28195e+15,8.6333e+15,3.36684e+11,1.09156e+16
4.35e+06,103999,6.04453e+06,3.58901e+25,2.8797e+21,3.46364e+11,0.765557,2.19688e+30,0.03468,8.05385e-05,5.01721e-12,1.64033e-63,2.28157e+15,8.63201e+15,3.3662e+11,1.09139e+16
4.45e+06,103988,6.04423e+06,3.84202e+25,3.08216e+21,3.54326e+11,0.765632,2.1958e+30,0.03468,8.05389e-05,5.01729e-12,1.64038e-63,2.28117e+15,8.63069e+15,3.36554e+11,1.09122e+16
4.55e+06,103977,6.04393e+06,4.10663e+25,3.29384e+21,3.62288e+11,0.765709,2.1947e+30,0.03468,8.05386e-05,5.01721e-12,1.64032e-63,2.28077e+15,8.62935e+15,3.36487e+11,1.09105e+16
4.65e+06,103966,6.04362e+06,4.38311e+25,3.51493e+21,3.70249e+11,0.765787,2.19357e+30,0.03468,8.0538e-05,5.01708e-12,1.64023e-63,2.28036e+15,8.62797e+15,3.36419e+11,1.09087e+16
4.75e+06,103954,6.04331e+06,4.67171e+25,3.74565e+21,3.78211e+11,0.765868,2.19242e+30,0.03468,8.05377e-05,5.017e-12,1.64018e-63,2.27993e+15,8.62656e+15,3.36348e+11,1.09068e+16
4.85e+06,103943,6.04299e+06,4.97268e+25,3.98618e+21,3.86172e+11,0.76595,2.19125e+30,0.03468,8.05367e-05,5.01678e-12,1.64002e-63,2.2795e+15,8.62513e+15,3.36277e+11,1.0905e+16
4.95e+06,103930,6.04266e+06,5.28629e+25,4.23673e+21,3.94134e+11,0.766033,2.19005e+30,0.03468,8.05352e-05,5.01647e-12,1.6398e-63,2.27906e+15,8.62366e+15,3.36204e+11,1.09031e+16
5.05e+06,103918,6.04232e+06,5.61279e+25,4.49749e+21,4.02095e+11,0.766119,2.18883e+30,0.03468,8.05357e-05,5.01657e-12,1.63987e-63,2.27862e+15,8.62216e+15,3.36129e+11,1.09011e+16
5.15e+06,103906,6.04198e+06,5.95243e+25,4.76866e+21,4.10057e+11,0.766206,2.18758e+30,0.03468,8.05353e-05,5.01647e-12,1.6398e-63,2.27816e+15,8.62064e+15,3.36053e+11,1.08991e+16
5.25e+06,103893,6.04163e+06,6.30549e+25,5.05043e+21,4.18018e+11,0.766295,2.18631e+30,0.03468,8.05346e-05,5.01632e-12,1.63969e-63,2.27769e+15,8.61908e+15,3.35976e+11,1.08971e+16
5.35e+06,103880,6.04128e+06,6.67221e+25,5.34301e+21,4.25979e+11,0.766385,2.18502e+30,0.03468,8.05342e-05,5.01623e-12,1.63962e-63,2.27722e+15,8.6175e+15,3.35897e+11,1.08951e+16
5.45e+06,103867,6.04092e+06,7.05285e+25,5.64658e+21,4.3394e+11,0.766477,2.18371e+30,0.03468,8.05331e-05,5.01597e-12,1.63944e-63,2.27673e+15,8.61588e+15,3.35816e+11,1.0893e+16
5.55e+06,103853,6.04055e+06,7.44767e+25,5.96134e+21,4.41902e+11,0.766571,2.18237e+30,0.03468,8.05314e-05,5.01561e-12,1.63918e-63,2.27624e+15,8.61424e+15,3.35734e+11,1.08908e+16
5.65e+06,103840,6.04017e+06,7.85692e+25,6.28748e+21,4.49863e+11,0.766667,2.181e+30,0.03468,8.05319e-05,5.01573e-12,1.63926e-63,2.27574e+15,8.61257e+15,3.35651e+11,1.08886e+16
5.75e+06,103826,6.03979e+06,8.28086e+25,6.6252e+21,4.57824e+11,0.766764,2.17962e+30,0.03468,8.05314e-05,5.01561e-12,1.63918e-63,2.27523e+15,8.61087e+15,3.35566e+11,1.08864e+16
5.85e+06,103811,6.0394e+06,8.71975e+25,6.97469e+21,4.65785e+11,0.766864,2.17821e+30,0.03468,8.05307e-05,5.01543e-12,1.63905e-63,2.27471e+15,8.60913e+15,3.3548e+11,1.08842e+16
5.95e+06,103797,6.03901e+06,9.17383e+25,7.33615e+21,4.73746e+11,0.766964,2.17677e+30,0.03468,8.05302e-05,5.01533e-12,1.63898e-63,2.27418e+15,8.60737e+15,3.35392e+11,1.08819e+16
6.05e+06,103782,6.03861e+06,9.64338e+25,7.70975e+21,4.81706e+11,0.767067,2.17531e+30,0.03468,8.0529e-05,5.01504e-12,1.63877e-63,2.27365e+15,8.60558e+15,3.35303e+11,1.08796e+16
6.15e+06,103767,6.0382e+06,1.01286e+26,8.0957e+21,4.89667e+11,0.767171,2.17383e+30,0.03468,8.05269e-05,5.01463e-12,1.63848e-63,2.2731e+15,8.60376e+15,3.35212e+11,1.08772e+16
6.25e+06,103752,6.03778e+06,1.06299e+26,8.49418e+21,4.97628e+11,0.767277,2.17233e+30,0.03468,8.05276e-05,5.01476e-12,1.63857e-63,2.27255e+15,8.60191e+15,3.3512e+11,1.08748e+16
6.35e+06,103737,6.03736e+06,1.11473e+26,8.90538e+21,5.05589e+11,0.767385,2.1708e+30,0.03468,8.0527e-05,5.01463e-12,1.63848e-63,2.27198e+15,8.60003e+15,3.35026e+11,1.08724e+16
6.45e+06,103721,6.03693e+06,1.16812e+26,9.3295e+21,5.13549e+11,0.767495,2.16925e+30,0.03468,8.05262e-05,5.01443e-12,1.63833e-63,2.27141e+15,8.59812e+15,3.34931e+11,1.08699e+16
6.55e+06,103705,6.0365e+06,1.22319e+26,9.76671e+21,5.2151e+11,0.767606,2.16768e+30,0.03468,8.05256e-05,5.01432e-12,1.63825e-63,2.27083e+15,8.59618e+15,3.34835e+11,1.08674e+16
6.65e+06,103689,6.03606e+06,1.27995e+26,1.02172e+22,5.2947e+11,0.767719,2.16609e+30,0.03468,8.05243e-05,5.01399e-12,1.63802e-63,2.27024e+15,8.59422e+15,3.34737e+11,1.08648e+16
6.75e+06,103673,6.03561e+06,1.33844e+26,1.06812e+22,5.37431e+11,0.767833,2.16447e+30,0.03468,8.0522e-05,5.01353e-12,1.63769e-63,2.26965e+15,8.59222e+15,3.34637e+11,1.08622e+16
6.85e+06,103656,6.03515e+06,1.39868e+26,1.11588e+22,5.45391e+11,0.76795,2.16283e+30,0.03468,8.05227e-05,5.01367e-12,1.63779e-63,2.26904e+15,8.59019e+15,3.34536e+11,1.08596e+16
6.95e+06,103639,6.03469e+06,1.46069e+26,1.16503e+22,5.53351e+11,0.768068,2.16116e+30,0.03468,8.05221e-05,5.01353e-12,1.63769e-63,2.26842e+15,8.58814e+15,3.34434e+11,1.08569e+16
7.05e+06,103622,6.03422e+06,1.5245e+26,1.21558e+22,5.61311e+11,0.768188,2.15947e+30,0.03468,8.05212e-05,5.0133e-12,1.63753e-63,2.2678e+15,8.58605e+15,3.3433e+11,1.08542e+16
7.15e+06,103605,6.03375e+06,1.59014e+26,1.26755e+22,5.69271e+11,0.768309,2.15776e+30,0.03468,8.05206e-05,5.01318e-12,1.63744e-63,2.26717e+15,8.58394e+15,3.34225e+11,1.08514e+16
7.25e+06,103587,6.03327e+06,1.65763e+26,1.32096e+22,5.77232e+11,0.768433,2.15603e+30,0.03468,8.0519e-05,5.01282e-12,1.63718e-63,2.26652e+15,8.5818e+15,3.34118e+11,1.08487e+16
7.35e+06,103569,6.03278e+06,1.72699e+26,1.37583e+22,5.85191e+11,0.768558,2.15428e+30,0.03468,8.05165e-05,5.0123e-12,1.63681e-63,2.26587e+15,8.57963e+15,3.3401e+11,1.08458e+16
7.45e+06,103551,6.03228e+06,1.79826e+26,1.43217e+22,5.93151e+11,0.768684,2.1525e+30,0.03468,8.05173e-05,5.01246e-12,1.63693e-63,2.26521e+15,8.57742e+15,3.339e+11,1.0843e+16
7.55e+06,103533,6.03178e+06,1.87145e+26,1.49001e+22,6.01111e+11,0.768813,2.1507e+30,0.03468,8.05166e-05,5.0123e-12,1.63681e-63,2.26455e+15,8.57519e+15,3.33789e+11,1.08401e+16
7.65e+06,103514,6.03127e+06,1.94659e+26,1.54935e+22,6.09071e+11,0.768943,2.14888e+30,0.03468,8.05156e-05,5.01205e-12,1.63663e-63,2.26387e+15,8.57293e+15,3.33677e+11,1.08371e+16
7.75e+06,103495,6.03076e+06,2.02371e+26,1.61023e+22,6.17031e+11,0.769075,2.14703e+30,0.03468,8.05149e-05,5.01191e-12,1.63654e-63,2.26319e+15,8.57065e+15,3.33563e+11,1.08342e+16
7.85e+06,103476,6.03024e+06,2.10283e+26,1.67266e+22,6.2499e+11,0.769209,2.14516e+30,0.03468,8.05132e-05,5.01152e-12,1.63625e-63,2.26249e+15,8.56833e+15,3.33448e+11,1.08312e+16
7.95e+06,103457,6.02971e+06,2.18397e+26,1.73665e+22,6.3295e+11,0.769344,2.14327e+30,0.03468,8.05104e-05,5.01095e-12,1.63585e-63,2.26179e+15,8.56598e+15,3.33331e+11,1.08281e+16
8.05e+06,103438,6.02917e+06,2.26717e+26,1.80222e+22,6.40909e+11,0.769482,2.14136e+30,0.03468,8.05114e-05,5.01113e-12,1.63597e-63,2.26108e+15,8.56361e+15,3.33213e+11,1.0825e+16
8.15e+06,103418,6.02863e+06,2.35245e+26,1.86939e+22,6.48868e+11,0.76962,2.13943e+30,0.03468,8.05106e-05,5.01096e-12,1.63585e-63,2.26036e+15,8.5612e+15,3.33093e+11,1.08219e+16
8.25e+06,103398,6.02809e+06,2.43983e+26,1.93818e+22,6.56828e+11,0.769761,2.13747e+30,0.03468,8.05095e-05,5.01068e-12,1.63565e-63,2.25963e+15,8.55877e+15,3.32972e+11,1.08187e+16
8.35e+06,103378,6.02753e+06,2.52933e+26,2.00861e+22,6.64787e+11,0.769903,2.13549e+30,0.03468,8.05087e-05,5.01053e-12,1.63555e-63,2.25889e+15,8.55631e+15,3.32849e+11,1.08155e+16
8.45e+06,103357,6.02697e+06,2.62098e+26,2.08068e+22,6.72746e+11,0.770048,2.13349e+30,0.03468,8.05069e-05,5.0101e-12,1.63524e-63,2.25815e+15,8.55381e+15,3.32726e+11,1.08123e+16
8.55e+06,103336,6.0264e+06,2.71482e+26,2.15443e+22,6.80705e+11,0.770194,2.13147e+30,0.03468,8.05038e-05,5.00948e-12,1.63479e-63,2.25739e+15,8.55129e+15,3.326e+11,1.0809e+16
8.65e+06,103315,6.02583e+06,2.81085e+26,2.22986e+22,6.88664e+11,0.770341,2.12943e+30,0.03468,8.05048e-05,5.00968e-12,1.63493e-63,2.25663e+15,8.54875e+15,3.32473e+11,1.08057e+16
8.75e+06,103294,6.02525e+06,2.90911e+26,2.307e+22,6.96623e+11,0.77049,2.12736e+30,0.03468,8.0504e-05,5.00949e-12,1.6348e-63,2.25586e+15,8.54617e+15,3.32345e+11,1.08024e+16
8.85e+06,103273,6.02466e+06,3.00962e+26,2.38585e+22,7.04581e+11,0.770642,2.12527e+30,0.03468,8.05028e-05,5.00919e-12,1.63459e-63,2.25508e+15,8.54356e+15,3.32216e+11,1.0799e+16
8.95e+06,103251,6.02406e+06,3.11241e+26,2.46645e+22,7.1254e+11,0.770794,2.12317e+30,0.03468,8.0502e-05,5.00903e-12,1.63447e-63,2.25429e+15,8.54093e+15,3.32084e+11,1.07955e+16
9.05e+06,103229,6.02346e+06,3.21749e+26,2.54879e+22,7.20498e+11,0.770949,2.12104e+30,0.03468,8.05e-05,5.00856e-12,1.63413e-63,2.25349e+15,8.53826e+15,3.31952e+11,1.07921e+16
9.15e+06,103207,6.02286e+06,3.32491e+26,2.63291e+22,7.28457e+11,0.771105,2.11888e+30,0.03468,8.04967e-05,5.00789e-12,1.63366e-63,2.25269e+15,8.53557e+15,3.31818e+11,1.07886e+16
9.25e+06,103185,6.02224e+06,3.43467e+26,2.71882e+22,7.36415e+11,0.771263,2.11671e+30,0.03468,8.04978e-05,5.0081e-12,1.63381e-63,2.25187e+15,8.53285e+15,3.31683e+11,1.0785e+16
9.35e+06,103162,6.02162e+06,3.54681e+26,2.80652e+22,7.44374e+11,0.771423,2.11452e+30,0.03468,8.04969e-05,5.0079e-12,1.63366e-63,2.25105e+15,8.5301e+15,3.31546e+11,1.07815e+16
9.45e+06,103139,6.02099e+06,3.66134e+26,2.89605e+22,7.52332e+11,0.771585,2.1123e+30,0.03468,8.04956e-05,5.00757e-12,1.63343e-63,2.25022e+15,8.52732e+15,3.31408e+11,1.07779e+16
9.55e+06,103116,6.02036e+06,3.7783e+26,2.98741e+22,7.6029e+11,0.771748,2.11006e+30,0.03468,8.04947e-05,5.0074e-12,1.63331e-63,2.24938e+15,8.52451e+15,3.31268e+11,1.07742e+16
9.65e+06,103093,6.01972e+06,3.89771e+26,3.08063e+22,7.68248e+11,0.771913,2.10781e+30,0.03468,8.04926e-05,5.00689e-12,1.63295e-63,2.24853e+15,8.52167e+15,3.31128e+11,1.07705e+16
9.75e+06,103069,6.01907e+06,4.01959e+26,3.17571e+22,7.76206e+11,0.77208,2.10553e+30,0.03468,8.0489e-05,5.00617e-12,1.63243e-63,2.24767e+15,8.51881e+15,3.30985e+11,1.07668e+16
9.85e+06,103045,6.01842e+06,4.14397e+26,3.27268e+22,7.84163e+11,0.772249,2.10323e+30,0.03468,8.04902e-05,5.0064e-12,1.63259e-63,2.24681e+15,8.51592e+15,3.30841e+11,1.07631e+16
9.95e+06,103021,6.01776e+06,4.27087e+26,3.37155e+22,7.92121e+11,0.772419,2.10091e+30,0.03468,8.04892e-05,5.00618e-12,1.63244e-63,2.24593e+15,8.513e+15,3.30696e+11,1.07593e+16
1.005e+07,102997,6.01709e+06,4.40032e+26,3.47233e+22,8.00079e+11,0.772591,2.09856e+30,0.03468,8.04878e-05,5.00584e-12,1.63219e-63,2.24505e+15,8.51005e+15,3.3055e+11,1.07554e+16
1.015e+07,102973,6.01642e+06,4.53234e+26,3.57504e+22,8.08036e+11,0.772765,2.0962e+30,0.03468,8.04869e-05,5.00565e-12,1.63206e-63,2.24416e+15,8.50707e+15,3.30402e+11,1.07516e+16
1.025e+07,102948,6.01574e+06,4.66695e+26,3.67971e+22,8.15993e+11,0.772941,2.09382e+30,0.03468,8.04846e-05,5.00511e-12,1.63167e-63,2.24326e+15,8.50406e+15,3.30253e+11,1.07477e+16
1.035e+07,102923,6.01505e+06,4.80418e+26,3.78633e+22,8.23951e+11,0.773118,2.09142e+30,0.03468,8.04808e-05,5.00433e-12,1.63112e-63,2.24235e+15,8.50103e+15,3.30102e+11,1.07437e+16
1.045e+07,102898,6.01436e+06,4.94405e+26,3.89493e+22,8.31908e+11,0.773297,2.08899e+30,0.03468,8.0482e-05,5.00458e-12,1.63129e-63,2.24144e+15,8.49796e+15,3.2995e+11,1.07397e+16
1.055e+07,102872,6.01366e+06,5.0866e+26,4.00552e+22,8.39865e+11,0.773478,2.08655e+30,0.03468,8.0481e-05,5.00435e-12,1.63113e-63,2.24051e+15,8.49487e+15,3.29796e+11,1.07357e+16
1.065e+07,102846,6.01295e+06,5.23183e+26,4.11812e+22,8.47822e+11,0.773661,2.08408e+30,0.03468,8.04795e-05,5.00398e-12,1.63086e-63,2.23958e+15,8.49175e+15,3.29641e+11,1.07317e+16
1.075e+07,102820,6.01224e+06,5.37978e+26,4.23275e+22,8.55779e+11,0.773845,2.0816e+30,0.03468,8.04785e-05,5.00378e-12,1.63072e-63,2.23864e+15,8.4886e+15,3.29485e+11,1.07276e+16
1.085e+07,102794,6.01152e+06,5.53047e+26,4.34941e+22,8.63735e+11,0.774031,2.07909e+30,0.03468,8.04761e-05,5.0032e-12,1.63031e-63,2.23769e+15,8.48543e+15,3.29327e+11,1.07234e+16
1.095e+07,102768,6.0108e+06,5.68393e+26,4.46813e+22,8.71692e+11,0.774219,2.07657e+30,0.03468,8.0472e-05,5.00238e-12,1.62972e-63,2.23673e+15,8.48222e+15,3.29168e+11,1.07193e+16
