X = 0.734
Y = 0.25
Z = 0.016
mu = 0.601142
Radius,Density,Temp,Mass,Lum,OptD,Kff,KH,Kes,PP,CNO,3a,Deg,Gas,Rad,TotPres
0,0,0,0,0,0,-nan,0,0.03468,0.000871514,4.34086e-07,1.31855e-52,0,0,0,0
1,117600,1.06481e+07,492602,429.523,13522.7,0.114989,3.8167e+32,0.03468,0.000871514,4.34086e-07,1.31855e-52,2.80025e+15,1.71949e+16,3.24176e+12,1.99984e+16
30001,117600,1.06481e+07,1.33016e+19,1.15983e+16,4.05695e+08,0.114989,3.8167e+32,0.03468,0.000871514,4.34086e-07,1.31855e-52,2.80025e+15,1.71949e+16,3.24176e+12,1.99984e+16
70001,117600,1.06481e+07,1.6897e+20,1.47333e+17,9.46603e+08,0.114989,3.8167e+32,0.03468,0.000871514,4.34086e-07,1.31855e-52,2.80025e+15,1.71949e+16,3.24176e+12,1.99984e+16
150001,117600,1.06481e+07,1.66256e+21,1.44966e+18,2.02842e+09,0.114989,3.81667e+32,0.03468,0.000871514,4.34086e-07,1.31855e-52,2.80024e+15,1.71949e+16,3.24175e+12,1.99984e+16
250001,117599,1.06481e+07,7.69697e+21,6.7113e+18,3.38069e+09,0.11499,3.81661e+32,0.03468,0.000871514,4.34086e-07,1.31855e-52,2.80023e+15,1.71948e+16,3.24173e+12,1.99983e+16
350001,117599,1.06481e+07,2.11203e+22,1.84155e+19,4.73296e+09,0.11499,3.81652e+32,0.03468,0.000871514,4.34086e-07,1.31855e-52,2.8002e+15,1.71947e+16,3.2417e+12,1.99981e+16
450001,117598,1.0648e+07,4.48882e+22,3.9139e+19,6.08523e+09,0.114991,3.8164e+32,0.03468,0.000871514,4.34086e-07,1.31855e-52,2.80017e+15,1.71945e+16,3.24166e+12,1.99979e+16
550001,117597,1.0648e+07,8.19558e+22,7.1458e+19,7.43749e+09,0.114992,3.81625e+32,0.03468,0.000871514,4.34086e-07,1.31855e-52,2.80013e+15,1.71943e+16,3.24161e+12,1.99977e+16
650001,117596,1.06479e+07,1.35278e+23,1.17949e+20,8.78976e+09,0.114993,3.81607e+32,0.03468,0.000871514,4.34086e-07,1.31855e-52,2.80008e+15,1.7194e+16,3.24155e+12,1.99974e+16
750001,117594,1.06479e+07,2.07811e+23,1.81186e+20,1.0142e+10,0.114994,3.81587e+32,0.03468,0.000871514,4.34086e-07,1.31855e-52,2.80003e+15,1.71937e+16,3.24148e+12,1.9997e+16
850001,117593,1.06478e+07,3.02509e+23,2.63744e+20,1.14943e+10,0.114995,3.81563e+32,0.03468,0.000871514,4.34086e-07,1.31855e-52,2.79996e+15,1.71934e+16,3.2414e+12,1.99966e+16
950001,117591,1.06477e+07,4.22326e+23,3.68198e+20,1.28465e+10,0.114997,3.81536e+32,0.03468,0.000871514,4.34086e-07,1.31855e-52,2.79989e+15,1.7193e+16,3.24131e+12,1.99961e+16
1.05e+06,117589,1.06477e+07,5.70217e+23,4.97121e+20,1.41988e+10,0.114999,3.81506e+32,0.03468,0.000871514,4.34086e-07,1.31855e-52,2.79981e+15,1.71926e+16,3.24121e+12,1.99956e+16
1.15e+06,117587,1.06476e+07,7.49136e+23,6.53083e+20,1.55511e+10,0.115,3.81473e+32,0.03468,0.000871514,4.34086e-07,1.31855e-52,2.79972e+15,1.71921e+16,3.2411e+12,1.99951e+16
1.25e+06,117584,1.06475e+07,9.62038e+23,8.38657e+20,1.69033e+10,0.115002,3.81437e+32,0.03468,0.000871513,4.34085e-07,1.31854e-52,2.79962e+15,1.71916e+16,3.24098e+12,1.99945e+16
1.35e+06,117582,1.06474e+07,1.21187e+24,1.05641e+21,1.82555e+10,0.115005,3.81399e+32,0.03468,0.000871513,4.34085e-07,1.31854e-52,2.79952e+15,1.7191e+16,3.24085e+12,1.99938e+16
1.45e+06,117579,1.06473e+07,1.5016e+24,1.30892e+21,1.96078e+10,0.115007,3.81357e+32,0.03468,0.000871513,4.34085e-07,1.31854e-52,2.79941e+15,1.71904e+16,3.24071e+12,1.99931e+16
1.55e+06,117576,1.06471e+07,1.83416e+24,1.59874e+21,2.096e+10,0.11501,3.81312e+32,0.03468,0.000871513,4.34084e-07,1.31854e-52,2.79929e+15,1.71898e+16,3.24056e+12,1.99923e+16
1.65e+06,117572,1.0647e+07,2.21252e+24,1.92845e+21,2.23123e+10,0.115013,3.81265e+32,0.03468,0.000871512,4.34084e-07,1.31853e-52,2.79916e+15,1.71891e+16,3.2404e+12,1.99915e+16
1.75e+06,117569,1.06469e+07,2.63963e+24,2.3006e+21,2.36645e+10,0.115015,3.81214e+32,0.03468,0.000871512,4.34083e-07,1.31853e-52,2.79902e+15,1.71884e+16,3.24023e+12,1.99906e+16
1.85e+06,117565,1.06467e+07,3.11843e+24,2.71776e+21,2.50167e+10,0.115019,3.8116e+32,0.03468,0.000871511,4.34081e-07,1.31851e-52,2.79888e+15,1.71876e+16,3.24005e+12,1.99897e+16
1.95e+06,117562,1.06466e+07,3.65187e+24,3.18249e+21,2.63689e+10,0.115022,3.81104e+32,0.03468,0.00087151,4.34079e-07,1.3185e-52,2.79873e+15,1.71868e+16,3.23986e+12,1.99888e+16
2.05e+06,117558,1.06464e+07,4.24291e+24,3.69736e+21,2.77212e+10,0.115025,3.81044e+32,0.03468,0.00087151,4.34079e-07,1.3185e-52,2.79857e+15,1.71859e+16,3.23966e+12,1.99878e+16
2.15e+06,117553,1.06462e+07,4.8945e+24,4.2649e+21,2.90734e+10,0.115029,3.80982e+32,0.03468,0.000871509,4.34078e-07,1.3185e-52,2.7984e+15,1.7185e+16,3.23945e+12,1.99867e+16
2.25e+06,117549,1.0646e+07,5.60959e+24,4.88769e+21,3.04256e+10,0.115033,3.80916e+32,0.03468,0.000871508,4.34076e-07,1.31848e-52,2.79823e+15,1.71841e+16,3.23923e+12,1.99856e+16
2.35e+06,117544,1.06458e+07,6.39112e+24,5.56828e+21,3.17778e+10,0.115037,3.80848e+32,0.03468,0.000871507,4.34074e-07,1.31847e-52,2.79804e+15,1.71831e+16,3.239e+12,1.99844e+16
2.45e+06,117539,1.06456e+07,7.24204e+24,6.30921e+21,3.313e+10,0.115041,3.80776e+32,0.03468,0.000871504,4.34069e-07,1.31844e-52,2.79785e+15,1.71821e+16,3.23876e+12,1.99832e+16
2.55e+06,117534,1.06454e+07,8.16529e+24,7.11303e+21,3.44821e+10,0.115045,3.80702e+32,0.03468,0.000871501,4.34064e-07,1.31841e-52,2.79765e+15,1.7181e+16,3.2385e+12,1.99819e+16
2.65e+06,117529,1.06452e+07,9.16383e+24,7.98229e+21,3.58343e+10,0.11505,3.80624e+32,0.03468,0.000871502,4.34065e-07,1.31841e-52,2.79744e+15,1.71799e+16,3.23824e+12,1.99806e+16
2.75e+06,117524,1.0645e+07,1.02406e+25,8.91953e+21,3.71865e+10,0.115054,3.80544e+32,0.03468,0.000871501,4.34063e-07,1.3184e-52,2.79723e+15,1.71788e+16,3.23797e+12,1.99792e+16
2.85e+06,117518,1.06448e+07,1.13986e+25,9.9273e+21,3.85386e+10,0.115059,3.80461e+32,0.03468,0.000871499,4.34059e-07,1.31837e-52,2.797e+15,1.71776e+16,3.23769e+12,1.99778e+16
2.95e+06,117512,1.06445e+07,1.26406e+25,1.10081e+22,3.98908e+10,0.115064,3.80375e+32,0.03468,0.000871497,4.34057e-07,1.31836e-52,2.79677e+15,1.71763e+16,3.2374e+12,1.99763e+16
3.05e+06,117506,1.06443e+07,1.39697e+25,1.21645e+22,4.12429e+10,0.11507,3.80286e+32,0.03468,0.000871494,4.3405e-07,1.31831e-52,2.79653e+15,1.71751e+16,3.2371e+12,1.99748e+16
3.15e+06,117500,1.0644e+07,1.53889e+25,1.33991e+22,4.25951e+10,0.115075,3.80193e+32,0.03468,0.000871488,4.34041e-07,1.31825e-52,2.79629e+15,1.71737e+16,3.23679e+12,1.99733e+16
3.25e+06,117494,1.06438e+07,1.69009e+25,1.47143e+22,4.39472e+10,0.115081,3.80098e+32,0.03468,0.00087149,4.34044e-07,1.31827e-52,2.79603e+15,1.71724e+16,3.23647e+12,1.99716e+16
3.35e+06,117487,1.06435e+07,1.85089e+25,1.61127e+22,4.52993e+10,0.115086,3.8e+32,0.03468,0.000871488,4.34041e-07,1.31825e-52,2.79577e+15,1.7171e+16,3.23614e+12,1.997e+16
3.45e+06,117480,1.06432e+07,2.02157e+25,1.75968e+22,4.66514e+10,0.115092,3.79899e+32,0.03468,0.000871485,4.34036e-07,1.31822e-52,2.7955e+15,1.71695e+16,3.2358e+12,1.99682e+16
3.55e+06,117473,1.06429e+07,2.20242e+25,1.91691e+22,4.80035e+10,0.115098,3.79796e+32,0.03468,0.000871484,4.34033e-07,1.3182e-52,2.79522e+15,1.7168e+16,3.23545e+12,1.99665e+16
3.65e+06,117466,1.06426e+07,2.39374e+25,2.08321e+22,4.93556e+10,0.115104,3.79689e+32,0.03468,0.000871479,4.34024e-07,1.31814e-52,2.79493e+15,1.71665e+16,3.23509e+12,1.99646e+16
3.75e+06,117458,1.06423e+07,2.59583e+25,2.25884e+22,5.07077e+10,0.115111,3.79579e+32,0.03468,0.000871471,4.34011e-07,1.31805e-52,2.79464e+15,1.71649e+16,3.23472e+12,1.99628e+16
3.85e+06,117451,1.0642e+07,2.80897e+25,2.44405e+22,5.20598e+10,0.115117,3.79466e+32,0.03468,0.000871474,4.34015e-07,1.31808e-52,2.79433e+15,1.71633e+16,3.23434e+12,1.99609e+16
3.95e+06,117443,1.06417e+07,3.03347e+25,2.63908e+22,5.34118e+10,0.115124,3.79351e+32,0.03468,0.000871471,4.34011e-07,1.31805e-52,2.79402e+15,1.71616e+16,3.23395e+12,1.99589e+16
4.05e+06,117435,1.06414e+07,3.26961e+25,2.84419e+22,5.47639e+10,0.115131,3.79232e+32,0.03468,0.000871468,4.34004e-07,1.31801e-52,2.7937e+15,1.71599e+16,3.23355e+12,1.99569e+16
4.15e+06,117427,1.0641e+07,3.51768e+25,3.05962e+22,5.61159e+10,0.115138,3.79111e+32,0.03468,0.000871465,4.34001e-07,1.31798e-52,2.79338e+15,1.71582e+16,3.23314e+12,1.99548e+16
4.25e+06,117418,1.06407e+07,3.77798e+25,3.28563e+22,5.7468e+10,0.115146,3.78986e+32,0.03468,0.000871459,4.3399e-07,1.31791e-52,2.79304e+15,1.71564e+16,3.23272e+12,1.99527e+16
4.35e+06,117410,1.06403e+07,4.05081e+25,3.52247e+22,5.882e+10,0.115153,3.78859e+32,0.03468,0.00087145,4.33974e-07,1.31781e-52,2.7927e+15,1.71545e+16,3.23229e+12,1.99505e+16
4.45e+06,117401,1.064e+07,4.33645e+25,3.77038e+22,6.0172e+10,0.115161,3.78729e+32,0.03468,0.000871453,4.33979e-07,1.31784e-52,2.79235e+15,1.71527e+16,3.23185e+12,1.99483e+16
4.55e+06,117392,1.06396e+07,4.6352e+25,4.02961e+22,6.1524e+10,0.115169,3.78596e+32,0.03468,0.00087145,4.33974e-07,1.3178e-52,2.79199e+15,1.71508e+16,3.2314e+12,1.9946e+16
4.65e+06,117383,1.06392e+07,4.94735e+25,4.3004e+22,6.2876e+10,0.115177,3.7846e+32,0.03468,0.000871446,4.33966e-07,1.31775e-52,2.79163e+15,1.71488e+16,3.23094e+12,1.99437e+16
4.75e+06,117373,1.06388e+07,5.2732e+25,4.58302e+22,6.42279e+10,0.115185,3.78321e+32,0.03468,0.000871443,4.33961e-07,1.31772e-52,2.79125e+15,1.71468e+16,3.23047e+12,1.99413e+16
4.85e+06,117363,1.06384e+07,5.61303e+25,4.87769e+22,6.55799e+10,0.115193,3.78179e+32,0.03468,0.000871436,4.33948e-07,1.31763e-52,2.79087e+15,1.71448e+16,3.22999e+12,1.99389e+16
4.95e+06,117354,1.0638e+07,5.96713e+25,5.18467e+22,6.69318e+10,0.115202,3.78034e+32,0.03468,0.000871425,4.33929e-07,1.31751e-52,2.79048e+15,1.71427e+16,3.2295e+12,1.99364e+16
5.05e+06,117344,1.06376e+07,6.3358e+25,5.50421e+22,6.82838e+10,0.11521,3.77887e+32,0.03468,0.000871428,4.33935e-07,1.31755e-52,2.79008e+15,1.71405e+16,3.22901e+12,1.99339e+16
5.15e+06,117333,1.06372e+07,6.71934e+25,5.83655e+22,6.96357e+10,0.115219,3.77736e+32,0.03468,0.000871425,4.33929e-07,1.31751e-52,2.78968e+15,1.71384e+16,3.2285e+12,1.99313e+16
5.25e+06,117323,1.06368e+07,7.11803e+25,6.18193e+22,7.09876e+10,0.115228,3.77583e+32,0.03468,0.00087142,4.3392e-07,1.31745e-52,2.78926e+15,1.71362e+16,3.22798e+12,1.99286e+16
5.35e+06,117312,1.06363e+07,7.53216e+25,6.5406e+22,7.23395e+10,0.115237,3.77426e+32,0.03468,0.000871417,4.33915e-07,1.31741e-52,2.78884e+15,1.71339e+16,3.22745e+12,1.9926e+16
5.45e+06,117301,1.06359e+07,7.96203e+25,6.9128e+22,7.36913e+10,0.115247,3.77267e+32,0.03468,0.000871409,4.33899e-07,1.31731e-52,2.78841e+15,1.71316e+16,3.22691e+12,1.99232e+16
5.55e+06,117290,1.06354e+07,8.40792e+25,7.29878e+22,7.50432e+10,0.115256,3.77105e+32,0.03468,0.000871395,4.33877e-07,1.31716e-52,2.78798e+15,1.71293e+16,3.22636e+12,1.99205e+16
5.65e+06,117279,1.0635e+07,8.87013e+25,7.69878e+22,7.6395e+10,0.115266,3.7694e+32,0.03468,0.000871399,4.33884e-07,1.31721e-52,2.78753e+15,1.71269e+16,3.2258e+12,1.99176e+16
5.75e+06,117268,1.06345e+07,9.34895e+25,8.11303e+22,7.77469e+10,0.115276,3.76772e+32,0.03468,0.000871396,4.33877e-07,1.31716e-52,2.78708e+15,1.71245e+16,3.22523e+12,1.99148e+16
5.85e+06,117256,1.0634e+07,9.84467e+25,8.54179e+22,7.90987e+10,0.115286,3.76602e+32,0.03468,0.00087139,4.33867e-07,1.31709e-52,2.78662e+15,1.7122e+16,3.22466e+12,1.99118e+16
5.95e+06,117244,1.06336e+07,1.03576e+26,8.98529e+22,8.04505e+10,0.115296,3.76428e+32,0.03468,0.000871386,4.3386e-07,1.31705e-52,2.78615e+15,1.71195e+16,3.22407e+12,1.99089e+16
6.05e+06,117232,1.06331e+07,1.0888e+26,9.44378e+22,8.18022e+10,0.115307,3.76252e+32,0.03468,0.000871377,4.33843e-07,1.31693e-52,2.78567e+15,1.71169e+16,3.22347e+12,1.99058e+16
6.15e+06,117220,1.06326e+07,1.14361e+26,9.91748e+22,8.3154e+10,0.115317,3.76073e+32,0.03468,0.000871361,4.33818e-07,1.31677e-52,2.78519e+15,1.71143e+16,3.22286e+12,1.99028e+16
6.25e+06,117208,1.06321e+07,1.20023e+26,1.04067e+23,8.45058e+10,0.115328,3.75891e+32,0.03468,0.000871366,4.33826e-07,1.31682e-52,2.7847e+15,1.71117e+16,3.22224e+12,1.98996e+16
6.35e+06,117195,1.06315e+07,1.25869e+26,1.09115e+23,8.58575e+10,0.115339,3.75706e+32,0.03468,0.000871362,4.33818e-07,1.31677e-52,2.7842e+15,1.7109e+16,3.22162e+12,1.98965e+16
6.45e+06,117182,1.0631e+07,1.31901e+26,1.14323e+23,8.72092e+10,0.11535,3.75518e+32,0.03468,0.000871356,4.33806e-07,1.31669e-52,2.78369e+15,1.71063e+16,3.22098e+12,1.98932e+16
6.55e+06,117169,1.06305e+07,1.38122e+26,1.19693e+23,8.85609e+10,0.115362,3.75327e+32,0.03468,0.000871351,4.33799e-07,1.31664e-52,2.78318e+15,1.71036e+16,3.22033e+12,1.989e+16
6.65e+06,117156,1.06299e+07,1.44536e+26,1.25227e+23,8.99126e+10,0.115373,3.75134e+32,0.03468,0.000871341,4.33779e-07,1.31651e-52,2.78265e+15,1.71008e+16,3.21967e+12,1.98866e+16
6.75e+06,117143,1.06294e+07,1.51144e+26,1.30928e+23,9.12642e+10,0.115385,3.74938e+32,0.03468,0.000871323,4.33751e-07,1.31632e-52,2.78212e+15,1.70979e+16,3.21901e+12,1.98833e+16
6.85e+06,117129,1.06288e+07,1.57951e+26,1.36797e+23,9.26159e+10,0.115397,3.74739e+32,0.03468,0.000871329,4.3376e-07,1.31638e-52,2.78158e+15,1.7095e+16,3.21833e+12,1.98798e+16
6.95e+06,117115,1.06283e+07,1.64958e+26,1.42837e+23,9.39675e+10,0.115409,3.74537e+32,0.03468,0.000871324,4.33751e-07,1.31632e-52,2.78104e+15,1.70921e+16,3.21764e+12,1.98764e+16
7.05e+06,117101,1.06277e+07,1.72169e+26,1.49052e+23,9.53191e+10,0.115421,3.74332e+32,0.03468,0.000871317,4.33738e-07,1.31623e-52,2.78048e+15,1.70891e+16,3.21695e+12,1.98728e+16
7.15e+06,117087,1.06271e+07,1.79587e+26,1.55441e+23,9.66707e+10,0.115433,3.74124e+32,0.03468,0.000871312,4.3373e-07,1.31618e-52,2.77992e+15,1.70861e+16,3.21624e+12,1.98693e+16
7.25e+06,117072,1.06265e+07,1.87214e+26,1.6201e+23,9.80223e+10,0.115446,3.73914e+32,0.03468,0.000871301,4.33708e-07,1.31604e-52,2.77935e+15,1.70831e+16,3.21553e+12,1.98656e+16
7.35e+06,117058,1.06259e+07,1.95054e+26,1.68758e+23,9.93738e+10,0.115458,3.73701e+32,0.03468,0.000871281,4.33677e-07,1.31583e-52,2.77877e+15,1.708e+16,3.2148e+12,1.9862e+16
7.45e+06,117043,1.06253e+07,2.03109e+26,1.7569e+23,1.00725e+11,0.115471,3.73485e+32,0.03468,0.000871288,4.33687e-07,1.3159e-52,2.77818e+15,1.70768e+16,3.21407e+12,1.98582e+16
7.55e+06,117028,1.06247e+07,2.11382e+26,1.82806e+23,1.02077e+11,0.115484,3.73266e+32,0.03468,0.000871282,4.33677e-07,1.31583e-52,2.77759e+15,1.70737e+16,3.21332e+12,1.98545e+16
7.65e+06,117013,1.06241e+07,2.19875e+26,1.90111e+23,1.03428e+11,0.115498,3.73045e+32,0.03468,0.000871275,4.33662e-07,1.31573e-52,2.77699e+15,1.70704e+16,3.21257e+12,1.98506e+16
7.75e+06,116997,1.06234e+07,2.28593e+26,1.97604e+23,1.0478e+11,0.115511,3.72821e+32,0.03468,0.000871269,4.33653e-07,1.31567e-52,2.77638e+15,1.70672e+16,3.2118e+12,1.98468e+16
7.85e+06,116982,1.06228e+07,2.37538e+26,2.0529e+23,1.06131e+11,0.115525,3.72594e+32,0.03468,0.000871257,4.33629e-07,1.31552e-52,2.77576e+15,1.70639e+16,3.21103e+12,1.98428e+16
7.95e+06,116966,1.06221e+07,2.46712e+26,2.1317e+23,1.07483e+11,0.115538,3.72364e+32,0.03468,0.000871235,4.33595e-07,1.31529e-52,2.77514e+15,1.70605e+16,3.21024e+12,1.98389e+16
8.05e+06,116950,1.06215e+07,2.56118e+26,2.21247e+23,1.08834e+11,0.115552,3.72131e+32,0.03468,0.000871242,4.33606e-07,1.31536e-52,2.77451e+15,1.70571e+16,3.20945e+12,1.98349e+16
8.15e+06,116934,1.06208e+07,2.6576e+26,2.29523e+23,1.10185e+11,0.115566,3.71896e+32,0.03468,0.000871236,4.33595e-07,1.31529e-52,2.77387e+15,1.70537e+16,3.20865e+12,1.98308e+16
8.25e+06,116918,1.06201e+07,2.7564e+26,2.37999e+23,1.11537e+11,0.115581,3.71658e+32,0.03468,0.000871228,4.33579e-07,1.31518e-52,2.77322e+15,1.70502e+16,3.20783e+12,1.98267e+16
8.35e+06,116901,1.06195e+07,2.85761e+26,2.46679e+23,1.12888e+11,0.115595,3.71417e+32,0.03468,0.000871222,4.3357e-07,1.31512e-52,2.77256e+15,1.70467e+16,3.20701e+12,1.98225e+16
8.45e+06,116884,1.06188e+07,2.96126e+26,2.55565e+23,1.14239e+11,0.11561,3.71174e+32,0.03468,0.000871208,4.33544e-07,1.31494e-52,2.7719e+15,1.70432e+16,3.20618e+12,1.98183e+16
8.55e+06,116867,1.06181e+07,3.06737e+26,2.64658e+23,1.15591e+11,0.115625,3.70927e+32,0.03468,0.000871185,4.33506e-07,1.31469e-52,2.77123e+15,1.70396e+16,3.20534e+12,1.9814e+16
8.65e+06,116850,1.06174e+07,3.17598e+26,2.73962e+23,1.16942e+11,0.11564,3.70678e+32,0.03468,0.000871192,4.33518e-07,1.31477e-52,2.77055e+15,1.70359e+16,3.20448e+12,1.98097e+16
8.75e+06,116833,1.06167e+07,3.28712e+26,2.83478e+23,1.18293e+11,0.115655,3.70427e+32,0.03468,0.000871186,4.33506e-07,1.3147e-52,2.76987e+15,1.70323e+16,3.20362e+12,1.98053e+16
8.85e+06,116815,1.06159e+07,3.40081e+26,2.93208e+23,1.19644e+11,0.11567,3.70172e+32,0.03468,0.000871177,4.33488e-07,1.31458e-52,2.76917e+15,1.70286e+16,3.20275e+12,1.98009e+16
8.95e+06,116797,1.06152e+07,3.51707e+26,3.03154e+23,1.20996e+11,0.115686,3.69915e+32,0.03468,0.000871171,4.33478e-07,1.31451e-52,2.76847e+15,1.70248e+16,3.20187e+12,1.97965e+16
9.05e+06,116779,1.06145e+07,3.63595e+26,3.1332e+23,1.22347e+11,0.115701,3.69655e+32,0.03468,0.000871155,4.3345e-07,1.31432e-52,2.76776e+15,1.7021e+16,3.20098e+12,1.9792e+16
9.15e+06,116761,1.06137e+07,3.75747e+26,3.23707e+23,1.23698e+11,0.115717,3.69393e+32,0.03468,0.00087113,4.33409e-07,1.31405e-52,2.76704e+15,1.70172e+16,3.20008e+12,1.97874e+16
9.25e+06,116743,1.0613e+07,3.88165e+26,3.34317e+23,1.25049e+11,0.115733,3.69128e+32,0.03468,0.000871138,4.33422e-07,1.31414e-52,2.76632e+15,1.70133e+16,3.19917e+12,1.97828e+16
9.35e+06,116724,1.06122e+07,4.00852e+26,3.45152e+23,1.264e+11,0.11575,3.6886e+32,0.03468,0.000871132,4.3341e-07,1.31406e-52,2.76559e+15,1.70093e+16,3.19825e+12,1.97781e+16
9.45e+06,116706,1.06114e+07,4.13812e+26,3.56215e+23,1.27751e+11,0.115766,3.68589e+32,0.03468,0.000871122,4.33391e-07,1.31393e-52,2.76485e+15,1.70054e+16,3.19732e+12,1.97734e+16
9.55e+06,116687,1.06107e+07,4.27047e+26,3.67507e+23,1.29102e+11,0.115783,3.68316e+32,0.03468,0.000871115,4.3338e-07,1.31386e-52,2.7641e+15,1.70014e+16,3.19638e+12,1.97687e+16
9.65e+06,116668,1.06099e+07,4.4056e+26,3.79032e+23,1.30453e+11,0.115799,3.6804e+32,0.03468,0.000871099,4.33349e-07,1.31366e-52,2.76334e+15,1.69973e+16,3.19544e+12,1.97639e+16
9.75e+06,116648,1.06091e+07,4.54353e+26,3.9079e+23,1.31804e+11,0.115816,3.67761e+32,0.03468,0.000871071,4.33305e-07,1.31336e-52,2.76258e+15,1.69932e+16,3.19448e+12,1.9759e+16
9.85e+06,116629,1.06083e+07,4.6843e+26,4.02784e+23,1.33155e+11,0.115833,3.6748e+32,0.03468,0.00087108,4.3332e-07,1.31346e-52,2.76181e+15,1.69891e+16,3.19351e+12,1.97541e+16
9.95e+06,116609,1.06075e+07,4.82793e+26,4.15017e+23,1.34506e+11,0.115851,3.67196e+32,0.03468,0.000871073,4.33306e-07,1.31337e-52,2.76103e+15,1.69849e+16,3.19254e+12,1.97492e+16
1.005e+07,116589,1.06066e+07,4.97446e+26,4.27489e+23,1.35857e+11,0.115868,3.6691e+32,0.03468,0.000871062,4.33285e-07,1.31323e-52,2.76025e+15,1.69807e+16,3.19155e+12,1.97442e+16
1.015e+07,116569,1.06058e+07,5.1239e+26,4.40205e+23,1.37208e+11,0.115886,3.66621e+32,0.03468,0.000871055,4.33274e-07,1.31315e-52,2.75945e+15,1.69765e+16,3.19055e+12,1.97391e+16
1.025e+07,116549,1.0605e+07,5.27629e+26,4.53164e+23,1.38559e+11,0.115904,3.66329e+32,0.03468,0.000871038,4.33241e-07,1.31294e-52,2.75865e+15,1.69722e+16,3.18955e+12,1.9734e+16
1.035e+07,116528,1.06041e+07,5.43166e+26,4.6637e+23,1.3991e+11,0.115922,3.66034e+32,0.03468,0.000871008,4.33194e-07,1.31263e-52,2.75784e+15,1.69678e+16,3.18853e+12,1.97289e+16
1.045e+07,116507,1.06033e+07,5.59003e+26,4.79825e+23,1.41261e+11,0.11594,3.65737e+32,0.03468,0.000871018,4.33209e-07,1.31273e-52,2.75703e+15,1.69635e+16,3.18751e+12,1.97237e+16
1.055e+07,116487,1.06024e+07,5.75143e+26,4.93531e+23,1.42611e+11,0.115958,3.65438e+32,0.03468,0.00087101,4.33195e-07,1.31263e-52,2.7562e+15,1.6959e+16,3.18647e+12,1.97184e+16
1.065e+07,116465,1.06016e+07,5.91589e+26,5.07489e+23,1.43962e+11,0.115977,3.65136e+32,0.03468,0.000870999,4.33173e-07,1.31248e-52,2.75537e+15,1.69546e+16,3.18543e+12,1.97131e+16
1.075e+07,116444,1.06007e+07,6.08344e+26,5.21702e+23,1.45313e+11,0.115995,3.64831e+32,0.03468,0.000870991,4.33161e-07,1.3124e-52,2.75453e+15,1.69501e+16,3.18438e+12,1.97078e+16
1.085e+07,116423,1.05998e+07,6.2541e+26,5.36171e+23,1.46663e+11,0.116014,3.64524e+32,0.03468,0.000870972,4.33126e-07,1.31217e-52,2.75369e+15,1.69455e+16,3.18332e+12,1.97024e+16
1.095e+07,116401,1.05989e+07,6.42791e+26,5.509e+23,1.48014e+11,0.116033,3.64214e+32,0.03468,0.000870941,4.33076e-07,1.31184e-52,2.75283e+15,1.6941e+16,3.18224e+12,1.9697e+16
1.105e+07,116379,1.0598e+07,6.60489e+26,5.65889e+23,1.49365e+11,0.116053,3.63901e+32,0.03468,0.000870951,4.33092e-07,1.31195e-52,2.75197e+15,1.69363e+16,3.18116e+12,1.96915e+16
