X = 0.734
Y = 0.25
Z = 0.016
mu = 0.601142
Radius,Density,Temp,Mass,Lum,OptD,Kff,KH,Kes,PP,CNO,3a,Deg,Gas,Rad,TotPres
0,0,0,0,0,0,-nan,0,0.03468,3.50771e-05,2.06996e-14,8.1548e-69,0,0,0,0
1,146577,4.51383e+06,613981,21.5367,396487,2.70497,1.88353e+29,0.03468,3.50771e-05,2.06996e-14,8.1548e-69,4.0423e+15,9.08515e+15,1.04682e+11,1.31276e+16
30001,146577,4.51383e+06,1.65791e+19,5.81548e+14,1.1895e+10,2.70497,1.88353e+29,0.03468,3.50771e-05,2.06996e-14,8.1548e-69,4.0423e+15,9.08515e+15,1.04682e+11,1.31276e+16
70001,146577,4.51383e+06,2.10604e+20,7.38738e+15,2.77545e+10,2.70498,1.88352e+29,0.03468,3.50771e-05,2.06996e-14,8.1548e-69,4.04229e+15,9.08514e+15,1.04682e+11,1.31275e+16
150001,146576,4.51382e+06,2.07222e+21,7.2687e+16,5.94735e+10,2.70499,1.88349e+29,0.03468,3.50771e-05,2.06996e-14,8.1548e-69,4.04227e+15,9.08509e+15,1.04681e+11,1.31275e+16
250001,146575,4.51381e+06,9.5935e+21,3.36505e+17,9.91222e+10,2.70501,1.88342e+29,0.03468,3.50771e-05,2.06996e-14,8.1548e-69,4.04222e+15,9.08499e+15,1.0468e+11,1.31273e+16
350001,146574,4.51378e+06,2.63243e+22,9.23343e+17,1.38771e+11,2.70504,1.88332e+29,0.03468,3.50771e-05,2.06996e-14,8.1548e-69,4.04215e+15,9.08484e+15,1.04677e+11,1.31271e+16
450001,146572,4.51375e+06,5.59481e+22,1.96237e+18,1.7842e+11,2.70508,1.88318e+29,0.03468,3.50771e-05,2.06996e-14,8.15479e-69,4.04205e+15,9.08464e+15,1.04674e+11,1.31268e+16
550001,146569,4.51371e+06,1.02148e+23,3.5827e+18,2.18068e+11,2.70513,1.88301e+29,0.03468,3.50771e-05,2.06996e-14,8.15479e-69,4.04192e+15,9.08439e+15,1.0467e+11,1.31264e+16
650001,146566,4.51366e+06,1.68607e+23,5.91343e+18,2.57717e+11,2.70519,1.8828e+29,0.03468,3.50771e-05,2.06996e-14,8.15478e-69,4.04177e+15,9.08408e+15,1.04666e+11,1.3126e+16
750001,146562,4.5136e+06,2.59008e+23,9.08356e+18,2.97366e+11,2.70526,1.88256e+29,0.03468,3.50771e-05,2.06995e-14,8.15478e-69,4.04159e+15,9.08373e+15,1.0466e+11,1.31254e+16
850001,146557,4.51353e+06,3.77032e+23,1.3222e+19,3.37015e+11,2.70535,1.88228e+29,0.03468,3.50771e-05,2.06995e-14,8.15478e-69,4.04139e+15,9.08333e+15,1.04654e+11,1.31248e+16
950001,146553,4.51346e+06,5.2636e+23,1.84577e+19,3.76664e+11,2.70544,1.88197e+29,0.03468,3.50771e-05,2.06995e-14,8.15477e-69,4.04117e+15,9.08288e+15,1.04647e+11,1.31242e+16
1.05e+06,146547,4.51338e+06,7.10674e+23,2.49193e+19,4.16313e+11,2.70554,1.88163e+29,0.03468,3.50771e-05,2.06995e-14,8.15475e-69,4.04092e+15,9.08237e+15,1.0464e+11,1.31234e+16
1.15e+06,146541,4.51329e+06,9.33653e+23,3.27355e+19,4.55962e+11,2.70565,1.88125e+29,0.03468,3.50771e-05,2.06995e-14,8.15474e-69,4.04065e+15,9.08182e+15,1.04631e+11,1.31226e+16
1.25e+06,146535,4.51319e+06,1.19898e+24,4.20349e+19,4.95611e+11,2.70578,1.88083e+29,0.03468,3.50771e-05,2.06994e-14,8.15469e-69,4.04035e+15,9.08122e+15,1.04622e+11,1.31217e+16
1.35e+06,146528,4.51308e+06,1.51032e+24,5.29457e+19,5.3526e+11,2.70591,1.88039e+29,0.03468,3.5077e-05,2.06994e-14,8.15466e-69,4.04002e+15,9.08056e+15,1.04612e+11,1.31207e+16
1.45e+06,146520,4.51296e+06,1.87136e+24,6.55964e+19,5.74909e+11,2.70606,1.8799e+29,0.03468,3.5077e-05,2.06994e-14,8.15465e-69,4.03967e+15,9.07986e+15,1.04601e+11,1.31196e+16
1.55e+06,146512,4.51284e+06,2.28578e+24,8.01149e+19,6.14558e+11,2.70621,1.87939e+29,0.03468,3.5077e-05,2.06994e-14,8.15462e-69,4.0393e+15,9.07911e+15,1.0459e+11,1.31185e+16
1.65e+06,146503,4.51271e+06,2.75725e+24,9.66293e+19,6.54207e+11,2.70638,1.87884e+29,0.03468,3.5077e-05,2.06993e-14,8.15455e-69,4.0389e+15,9.0783e+15,1.04578e+11,1.31173e+16
1.75e+06,146494,4.51257e+06,3.28944e+24,1.15267e+20,6.93857e+11,2.70655,1.87825e+29,0.03468,3.5077e-05,2.06992e-14,8.15449e-69,4.03848e+15,9.07745e+15,1.04565e+11,1.3116e+16
1.85e+06,146484,4.51242e+06,3.88602e+24,1.36156e+20,7.33506e+11,2.70674,1.87763e+29,0.03468,3.50768e-05,2.0699e-14,8.15426e-69,4.03803e+15,9.07655e+15,1.04551e+11,1.31147e+16
1.95e+06,146474,4.51226e+06,4.55067e+24,1.59424e+20,7.73156e+11,2.70693,1.87698e+29,0.03468,3.50767e-05,2.06988e-14,8.1541e-69,4.03755e+15,9.07559e+15,1.04536e+11,1.31133e+16
2.05e+06,146463,4.5121e+06,5.28706e+24,1.85197e+20,8.12805e+11,2.70714,1.87629e+29,0.03468,3.50767e-05,2.06988e-14,8.15411e-69,4.03706e+15,9.07459e+15,1.04521e+11,1.31117e+16
2.15e+06,146452,4.51192e+06,6.09885e+24,2.13603e+20,8.52455e+11,2.70736,1.87557e+29,0.03468,3.50767e-05,2.06986e-14,8.15399e-69,4.03653e+15,9.07353e+15,1.04505e+11,1.31102e+16
2.25e+06,146440,4.51174e+06,6.9897e+24,2.44769e+20,8.92105e+11,2.70758,1.87481e+29,0.03468,3.50766e-05,2.06984e-14,8.15378e-69,4.03599e+15,9.07243e+15,1.04488e+11,1.31085e+16
2.35e+06,146427,4.51155e+06,7.96329e+24,2.7882e+20,9.31755e+11,2.70782,1.87402e+29,0.03468,3.50765e-05,2.06982e-14,8.15365e-69,4.03541e+15,9.07128e+15,1.04471e+11,1.31068e+16
2.45e+06,146414,4.51135e+06,9.02327e+24,3.15883e+20,9.71405e+11,2.70807,1.8732e+29,0.03468,3.50762e-05,2.06977e-14,8.15318e-69,4.03482e+15,9.07007e+15,1.04452e+11,1.3105e+16
2.55e+06,146401,4.51115e+06,1.01733e+25,3.56084e+20,1.01105e+12,2.70833,1.87234e+29,0.03468,3.5076e-05,2.06971e-14,8.15267e-69,4.0342e+15,9.06882e+15,1.04433e+11,1.31031e+16
2.65e+06,146387,4.51093e+06,1.14171e+25,3.99549e+20,1.05071e+12,2.7086,1.87145e+29,0.03468,3.5076e-05,2.06972e-14,8.15279e-69,4.03355e+15,9.06752e+15,1.04413e+11,1.31012e+16
2.75e+06,146372,4.51071e+06,1.27582e+25,4.46403e+20,1.09036e+12,2.70888,1.87053e+29,0.03468,3.50759e-05,2.0697e-14,8.15256e-69,4.03288e+15,9.06616e+15,1.04393e+11,1.30991e+16
2.85e+06,146357,4.51048e+06,1.42003e+25,4.96771e+20,1.13001e+12,2.70917,1.86957e+29,0.03468,3.50757e-05,2.06966e-14,8.1522e-69,4.03218e+15,9.06476e+15,1.04371e+11,1.3097e+16
2.95e+06,146341,4.51024e+06,1.57471e+25,5.50778e+20,1.16966e+12,2.70946,1.86857e+29,0.03468,3.50756e-05,2.06963e-14,8.152e-69,4.03146e+15,9.06331e+15,1.04349e+11,1.30949e+16
3.05e+06,146325,4.50999e+06,1.74023e+25,6.08549e+20,1.20931e+12,2.70978,1.86755e+29,0.03468,3.50753e-05,2.06956e-14,8.15133e-69,4.03072e+15,9.0618e+15,1.04326e+11,1.30926e+16
3.15e+06,146308,4.50974e+06,1.91694e+25,6.70207e+20,1.24896e+12,2.7101,1.86649e+29,0.03468,3.50748e-05,2.06946e-14,8.15047e-69,4.02995e+15,9.06025e+15,1.04303e+11,1.30903e+16
3.25e+06,146291,4.50947e+06,2.10521e+25,7.35876e+20,1.28861e+12,2.71043,1.86539e+29,0.03468,3.50749e-05,2.06948e-14,8.15072e-69,4.02915e+15,9.05865e+15,1.04278e+11,1.30879e+16
3.35e+06,146273,4.5092e+06,2.30541e+25,8.0568e+20,1.32826e+12,2.71077,1.86427e+29,0.03468,3.50747e-05,2.06945e-14,8.15041e-69,4.02833e+15,9.057e+15,1.04253e+11,1.30854e+16
3.45e+06,146255,4.50892e+06,2.5179e+25,8.79742e+20,1.36791e+12,2.71112,1.86311e+29,0.03468,3.50745e-05,2.06939e-14,8.14991e-69,4.02749e+15,9.0553e+15,1.04227e+11,1.30829e+16
3.55e+06,146236,4.50863e+06,2.74304e+25,9.58184e+20,1.40756e+12,2.71148,1.86191e+29,0.03468,3.50743e-05,2.06936e-14,8.14963e-69,4.02662e+15,9.05354e+15,1.042e+11,1.30803e+16
3.65e+06,146216,4.50833e+06,2.9812e+25,1.04113e+21,1.44722e+12,2.71185,1.86069e+29,0.03468,3.50739e-05,2.06926e-14,8.14876e-69,4.02573e+15,9.05174e+15,1.04173e+11,1.30776e+16
3.75e+06,146196,4.50803e+06,3.23274e+25,1.1287e+21,1.48687e+12,2.71224,1.85942e+29,0.03468,3.50732e-05,2.06912e-14,8.14758e-69,4.02481e+15,9.04989e+15,1.04145e+11,1.30748e+16
3.85e+06,146176,4.50772e+06,3.49803e+25,1.22101e+21,1.52652e+12,2.71263,1.85813e+29,0.03468,3.50734e-05,2.06916e-14,8.14794e-69,4.02387e+15,9.04799e+15,1.04116e+11,1.3072e+16
3.95e+06,146155,4.50739e+06,3.77741e+25,1.3182e+21,1.56617e+12,2.71303,1.8568e+29,0.03468,3.50732e-05,2.06912e-14,8.14754e-69,4.0229e+15,9.04604e+15,1.04086e+11,1.3069e+16
4.05e+06,146133,4.50706e+06,4.07127e+25,1.42037e+21,1.60582e+12,2.71345,1.85544e+29,0.03468,3.50729e-05,2.06904e-14,8.1469e-69,4.02191e+15,9.04404e+15,1.04056e+11,1.30661e+16
4.15e+06,146111,4.50673e+06,4.37996e+25,1.52765e+21,1.64548e+12,2.71387,1.85405e+29,0.03468,3.50727e-05,2.069e-14,8.14655e-69,4.02089e+15,9.042e+15,1.04024e+11,1.3063e+16
4.25e+06,146088,4.50638e+06,4.70383e+25,1.64016e+21,1.68513e+12,2.71431,1.85263e+29,0.03468,3.50721e-05,2.06888e-14,8.14547e-69,4.01985e+15,9.0399e+15,1.03992e+11,1.30599e+16
4.35e+06,146065,4.50603e+06,5.04326e+25,1.75801e+21,1.72478e+12,2.71475,1.85117e+29,0.03468,3.50712e-05,2.0687e-14,8.14398e-69,4.01879e+15,9.03775e+15,1.0396e+11,1.30566e+16
4.45e+06,146041,4.50566e+06,5.3986e+25,1.88133e+21,1.76444e+12,2.71521,1.84968e+29,0.03468,3.50715e-05,2.06876e-14,8.14445e-69,4.0177e+15,9.03555e+15,1.03926e+11,1.30534e+16
4.55e+06,146017,4.50529e+06,5.77022e+25,2.01024e+21,1.80409e+12,2.71568,1.84815e+29,0.03468,3.50713e-05,2.0687e-14,8.14396e-69,4.01659e+15,9.03331e+15,1.03892e+11,1.305e+16
4.65e+06,145992,4.50491e+06,6.15846e+25,2.14485e+21,1.84374e+12,2.71615,1.8466e+29,0.03468,3.50709e-05,2.06861e-14,8.14318e-69,4.01545e+15,9.03101e+15,1.03857e+11,1.30466e+16
4.75e+06,145967,4.50453e+06,6.56371e+25,2.28528e+21,1.8834e+12,2.71664,1.84501e+29,0.03468,3.50706e-05,2.06856e-14,8.14275e-69,4.01429e+15,9.02867e+15,1.03821e+11,1.30431e+16
4.85e+06,145941,4.50413e+06,6.9863e+25,2.43164e+21,1.92305e+12,2.71714,1.84339e+29,0.03468,3.50699e-05,2.06841e-14,8.14147e-69,4.0131e+15,9.02627e+15,1.03785e+11,1.30395e+16
4.95e+06,145914,4.50373e+06,7.42661e+25,2.58406e+21,1.96271e+12,2.71765,1.84173e+29,0.03468,3.50689e-05,2.0682e-14,8.13967e-69,4.01189e+15,9.02383e+15,1.03748e+11,1.30358e+16
5.05e+06,145888,4.50331e+06,7.88499e+25,2.74264e+21,2.00236e+12,2.71816,1.84005e+29,0.03468,3.50692e-05,2.06827e-14,8.14024e-69,4.01065e+15,9.02134e+15,1.0371e+11,1.30321e+16
5.15e+06,145860,4.50289e+06,8.3618e+25,2.90752e+21,2.04202e+12,2.71869,1.83833e+29,0.03468,3.50689e-05,2.0682e-14,8.13966e-69,4.00939e+15,9.0188e+15,1.03671e+11,1.30283e+16
5.25e+06,145832,4.50247e+06,8.85739e+25,3.07879e+21,2.08167e+12,2.71923,1.83658e+29,0.03468,3.50685e-05,2.0681e-14,8.13875e-69,4.00811e+15,9.0162e+15,1.03632e+11,1.30244e+16
5.35e+06,145803,4.50203e+06,9.37213e+25,3.25657e+21,2.12133e+12,2.71978,1.8348e+29,0.03468,3.50682e-05,2.06804e-14,8.13824e-69,4.0068e+15,9.01357e+15,1.03591e+11,1.30205e+16
5.45e+06,145774,4.50158e+06,9.90637e+25,3.44098e+21,2.16098e+12,2.72034,1.83299e+29,0.03468,3.50674e-05,2.06787e-14,8.13675e-69,4.00547e+15,9.01088e+15,1.0355e+11,1.30165e+16
5.55e+06,145745,4.50113e+06,1.04605e+26,3.63213e+21,2.20064e+12,2.72091,1.83114e+29,0.03468,3.50662e-05,2.06762e-14,8.13465e-69,4.00411e+15,9.00814e+15,1.03509e+11,1.30124e+16
5.65e+06,145715,4.50067e+06,1.10348e+26,3.83013e+21,2.24029e+12,2.7215,1.82926e+29,0.03468,3.50666e-05,2.0677e-14,8.13531e-69,4.00273e+15,9.00535e+15,1.03466e+11,1.30082e+16
5.75e+06,145684,4.5002e+06,1.16297e+26,4.0351e+21,2.27995e+12,2.72209,1.82736e+29,0.03468,3.50662e-05,2.06762e-14,8.13465e-69,4.00133e+15,9.00252e+15,1.03423e+11,1.3004e+16
5.85e+06,145653,4.49972e+06,1.22455e+26,4.24714e+21,2.31961e+12,2.72269,1.82542e+29,0.03468,3.50657e-05,2.0675e-14,8.1336e-69,3.9999e+15,8.99963e+15,1.03379e+11,1.29996e+16
5.95e+06,145621,4.49924e+06,1.28825e+26,4.46637e+21,2.35926e+12,2.7233,1.82345e+29,0.03468,3.50653e-05,2.06743e-14,8.13302e-69,3.99845e+15,8.9967e+15,1.03335e+11,1.29953e+16
6.05e+06,145589,4.49874e+06,1.35413e+26,4.69289e+21,2.39892e+12,2.72393,1.82144e+29,0.03468,3.50645e-05,2.06724e-14,8.13132e-69,3.99697e+15,8.99372e+15,1.03289e+11,1.29908e+16
6.15e+06,145556,4.49824e+06,1.4222e+26,4.92682e+21,2.43858e+12,2.72456,1.81941e+29,0.03468,3.50631e-05,2.06696e-14,8.12892e-69,3.99547e+15,8.99069e+15,1.03243e+11,1.29863e+16
6.25e+06,145523,4.49773e+06,1.4925e+26,5.16826e+21,2.47824e+12,2.72521,1.81735e+29,0.03468,3.50635e-05,2.06705e-14,8.12968e-69,3.99394e+15,8.98761e+15,1.03196e+11,1.29817e+16
6.35e+06,145489,4.49721e+06,1.56508e+26,5.41732e+21,2.5179e+12,2.72586,1.81525e+29,0.03468,3.50631e-05,2.06696e-14,8.12893e-69,3.9924e+15,8.98449e+15,1.03149e+11,1.2977e+16
6.45e+06,145454,4.49669e+06,1.63995e+26,5.67412e+21,2.55755e+12,2.72653,1.81312e+29,0.03468,3.50625e-05,2.06682e-14,8.12774e-69,3.99082e+15,8.98131e+15,1.03101e+11,1.29722e+16
6.55e+06,145419,4.49615e+06,1.71717e+26,5.93875e+21,2.59721e+12,2.7272,1.81097e+29,0.03468,3.50621e-05,2.06674e-14,8.12708e-69,3.98923e+15,8.97809e+15,1.03052e+11,1.29674e+16
6.65e+06,145384,4.49561e+06,1.79677e+26,6.21132e+21,2.63687e+12,2.72789,1.80878e+29,0.03468,3.50611e-05,2.06652e-14,8.12518e-69,3.9876e+15,8.97481e+15,1.03002e+11,1.29625e+16
6.75e+06,145348,4.49506e+06,1.87877e+26,6.49194e+21,2.67653e+12,2.72859,1.80656e+29,0.03468,3.50596e-05,2.06621e-14,8.12248e-69,3.98596e+15,8.97149e+15,1.02951e+11,1.29576e+16
6.85e+06,145311,4.4945e+06,1.96322e+26,6.78072e+21,2.71619e+12,2.7293,1.80432e+29,0.03468,3.50601e-05,2.06631e-14,8.12334e-69,3.98429e+15,8.96813e+15,1.029e+11,1.29525e+16
6.95e+06,145274,4.49393e+06,2.05015e+26,7.07774e+21,2.75585e+12,2.73002,1.80204e+29,0.03468,3.50596e-05,2.06621e-14,8.1225e-69,3.9826e+15,8.96471e+15,1.02848e+11,1.29474e+16
7.05e+06,145237,4.49336e+06,2.13959e+26,7.38313e+21,2.79551e+12,2.73074,1.79973e+29,0.03468,3.5059e-05,2.06606e-14,8.12117e-69,3.98088e+15,8.96124e+15,1.02796e+11,1.29422e+16
7.15e+06,145199,4.49277e+06,2.23158e+26,7.69698e+21,2.83517e+12,2.73148,1.79739e+29,0.03468,3.50585e-05,2.06597e-14,8.12044e-69,3.97914e+15,8.95773e+15,1.02742e+11,1.2937e+16
7.25e+06,145160,4.49218e+06,2.32616e+26,8.0194e+21,2.87484e+12,2.73223,1.79502e+29,0.03468,3.50574e-05,2.06573e-14,8.11833e-69,3.97738e+15,8.95417e+15,1.02688e+11,1.29317e+16
7.35e+06,145121,4.49158e+06,2.42336e+26,8.35048e+21,2.9145e+12,2.733,1.79263e+29,0.03468,3.50557e-05,2.06538e-14,8.11534e-69,3.97559e+15,8.95056e+15,1.02633e+11,1.29263e+16
7.45e+06,145081,4.49098e+06,2.52321e+26,8.69032e+21,2.95416e+12,2.73377,1.7902e+29,0.03468,3.50563e-05,2.06549e-14,8.11629e-69,3.97378e+15,8.9469e+15,1.02578e+11,1.29208e+16
7.55e+06,145041,4.49036e+06,2.62575e+26,9.03903e+21,2.99382e+12,2.73455,1.78774e+29,0.03468,3.50558e-05,2.06538e-14,8.11536e-69,3.97195e+15,8.9432e+15,1.02521e+11,1.29153e+16
7.65e+06,145000,4.48974e+06,2.73101e+26,9.39671e+21,3.03348e+12,2.73534,1.78526e+29,0.03468,3.5055e-05,2.06521e-14,8.11389e-69,3.97009e+15,8.93945e+15,1.02464e+11,1.29096e+16
7.75e+06,144959,4.4891e+06,2.83903e+26,9.76344e+21,3.07315e+12,2.73615,1.78274e+29,0.03468,3.50546e-05,2.06512e-14,8.11309e-69,3.96821e+15,8.93565e+15,1.02407e+11,1.2904e+16
7.85e+06,144917,4.48846e+06,2.94984e+26,1.01393e+22,3.11281e+12,2.73696,1.7802e+29,0.03468,3.50534e-05,2.06485e-14,8.11077e-69,3.96631e+15,8.9318e+15,1.02348e+11,1.28982e+16
7.95e+06,144875,4.48781e+06,3.06348e+26,1.05245e+22,3.15247e+12,2.73779,1.77763e+29,0.03468,3.50514e-05,2.06447e-14,8.10749e-69,3.96438e+15,8.9279e+15,1.02289e+11,1.28924e+16
8.05e+06,144832,4.48716e+06,3.17998e+26,1.0919e+22,3.19214e+12,2.73862,1.77503e+29,0.03468,3.50521e-05,2.06459e-14,8.10853e-69,3.96243e+15,8.92396e+15,1.02229e+11,1.28865e+16
8.15e+06,144789,4.48649e+06,3.29938e+26,1.13229e+22,3.2318e+12,2.73947,1.7724e+29,0.03468,3.50515e-05,2.06447e-14,8.10751e-69,3.96045e+15,8.91997e+15,1.02169e+11,1.28805e+16
8.25e+06,144745,4.48582e+06,3.4217e+26,1.17364e+22,3.27147e+12,2.74033,1.76974e+29,0.03468,3.50507e-05,2.06429e-14,8.10591e-69,3.95845e+15,8.91593e+15,1.02108e+11,1.28745e+16
8.35e+06,144701,4.48514e+06,3.54699e+26,1.21595e+22,3.31113e+12,2.74119,1.76705e+29,0.03468,3.50502e-05,2.06418e-14,8.10503e-69,3.95643e+15,8.91185e+15,1.02046e+11,1.28684e+16
8.45e+06,144656,4.48445e+06,3.67528e+26,1.25924e+22,3.3508e+12,2.74207,1.76434e+29,0.03468,3.50489e-05,2.06389e-14,8.10251e-69,3.95439e+15,8.90771e+15,1.01983e+11,1.28622e+16
8.55e+06,144611,4.48375e+06,3.8066e+26,1.3035e+22,3.39047e+12,2.74296,1.76159e+29,0.03468,3.50468e-05,2.06347e-14,8.09893e-69,3.95232e+15,8.90353e+15,1.01919e+11,1.2856e+16
8.65e+06,144565,4.48305e+06,3.94098e+26,1.34876e+22,3.43013e+12,2.74386,1.75882e+29,0.03468,3.50475e-05,2.06361e-14,8.10006e-69,3.95023e+15,8.89931e+15,1.01855e+11,1.28496e+16
8.75e+06,144518,4.48234e+06,4.07846e+26,1.39502e+22,3.4698e+12,2.74477,1.75602e+29,0.03468,3.50469e-05,2.06348e-14,8.09896e-69,3.94811e+15,8.89503e+15,1.01791e+11,1.28432e+16
8.85e+06,144471,4.48161e+06,4.21908e+26,1.44228e+22,3.50947e+12,2.74569,1.7532e+29,0.03468,3.5046e-05,2.06328e-14,8.09722e-69,3.94597e+15,8.89071e+15,1.01725e+11,1.28368e+16
8.95e+06,144424,4.48089e+06,4.36286e+26,1.49057e+22,3.54913e+12,2.74663,1.75035e+29,0.03468,3.50454e-05,2.06317e-14,8.09627e-69,3.94381e+15,8.88634e+15,1.01659e+11,1.28303e+16
9.05e+06,144376,4.48015e+06,4.50984e+26,1.53987e+22,3.5888e+12,2.74757,1.74746e+29,0.03468,3.5044e-05,2.06285e-14,8.09354e-69,3.94163e+15,8.88193e+15,1.01592e+11,1.28237e+16
9.15e+06,144327,4.4794e+06,4.66006e+26,1.59022e+22,3.62847e+12,2.74852,1.74456e+29,0.03468,3.50418e-05,2.0624e-14,8.08967e-69,3.93942e+15,8.87747e+15,1.01524e+11,1.2817e+16
9.25e+06,144278,4.47865e+06,4.81355e+26,1.6416e+22,3.66814e+12,2.74949,1.74162e+29,0.03468,3.50425e-05,2.06254e-14,8.0909e-69,3.93719e+15,8.87296e+15,1.01456e+11,1.28103e+16
9.35e+06,144229,4.47789e+06,4.97033e+26,1.69404e+22,3.70781e+12,2.75046,1.73866e+29,0.03468,3.50419e-05,2.0624e-14,8.08971e-69,3.93494e+15,8.86841e+15,1.01387e+11,1.28034e+16
9.45e+06,144179,4.47712e+06,5.13045e+26,1.74754e+22,3.74748e+12,2.75145,1.73567e+29,0.03468,3.50409e-05,2.06218e-14,8.08783e-69,3.93266e+15,8.86381e+15,1.01317e+11,1.27966e+16
9.55e+06,144128,4.47634e+06,5.29394e+26,1.80211e+22,3.78715e+12,2.75245,1.73266e+29,0.03468,3.50403e-05,2.06206e-14,8.08681e-69,3.93037e+15,8.85916e+15,1.01247e+11,1.27896e+16
9.65e+06,144077,4.47555e+06,5.46083e+26,1.85775e+22,3.82682e+12,2.75346,1.72962e+29,0.03468,3.50388e-05,2.06172e-14,8.08387e-69,3.92804e+15,8.85446e+15,1.01176e+11,1.27826e+16
9.75e+06,144025,4.47476e+06,5.63116e+26,1.91448e+22,3.86649e+12,2.75448,1.72655e+29,0.03468,3.50363e-05,2.06124e-14,8.07971e-69,3.9257e+15,8.84972e+15,1.01104e+11,1.27755e+16
9.85e+06,143973,4.47396e+06,5.80495e+26,1.9723e+22,3.90617e+12,2.7555,1.72345e+29,0.03468,3.50371e-05,2.06139e-14,8.08103e-69,3.92333e+15,8.84494e+15,1.01032e+11,1.27684e+16
9.95e+06,143921,4.47315e+06,5.98224e+26,2.03123e+22,3.94584e+12,2.75655,1.72033e+29,0.03468,3.50365e-05,2.06124e-14,8.07976e-69,3.92094e+15,8.84011e+15,1.00959e+11,1.27612e+16
1.005e+07,143868,4.47233e+06,6.16307e+26,2.09126e+22,3.98551e+12,2.7576,1.71719e+29,0.03468,3.50354e-05,2.06101e-14,8.07774e-69,3.91853e+15,8.83523e+15,1.00885e+11,1.27539e+16
1.015e+07,143814,4.47151e+06,6.34746e+26,2.15241e+22,4.02519e+12,2.75866,1.71402e+29,0.03468,3.50348e-05,2.06088e-14,8.07665e-69,3.9161e+15,8.8303e+15,1.0081e+11,1.27465e+16
1.025e+07,143760,4.47067e+06,6.53545e+26,2.21468e+22,4.06486e+12,2.75973,1.71082e+29,0.03468,3.50332e-05,2.06052e-14,8.07351e-69,3.91364e+15,8.82533e+15,1.00735e+11,1.27391e+16
1.035e+07,143705,4.46983e+06,6.72707e+26,2.27808e+22,4.10453e+12,2.76082,1.7076e+29,0.03468,3.50305e-05,2.06e-14,8.06906e-69,3.91116e+15,8.82032e+15,1.00659e+11,1.27316e+16
1.045e+07,143650,4.46898e+06,6.92236e+26,2.34262e+22,4.14421e+12,2.76191,1.70435e+29,0.03468,3.50314e-05,2.06016e-14,8.07047e-69,3.90866e+15,8.81525e+15,1.00583e+11,1.2724e+16
1.055e+07,143594,4.46812e+06,7.12134e+26,2.40831e+22,4.18388e+12,2.76302,1.70108e+29,0.03468,3.50307e-05,2.06e-14,8.06911e-69,3.90614e+15,8.81015e+15,1.00506e+11,1.27164e+16
1.065e+07,143538,4.46726e+06,7.32405e+26,2.47515e+22,4.22356e+12,2.76414,1.69779e+29,0.03468,3.50296e-05,2.05975e-14,8.06696e-69,3.90359e+15,8.80499e+15,1.00428e+11,1.27087e+16
1.075e+07,143482,4.46638e+06,7.53052e+26,2.54315e+22,4.26324e+12,2.76526,1.69447e+29,0.03468,3.50289e-05,2.05962e-14,8.0658e-69,3.90102e+15,8.7998e+15,1.00349e+11,1.27009e+16
1.085e+07,143424,4.4655e+06,7.74079e+26,2.61232e+22,4.30291e+12,2.7664,1.69112e+29,0.03468,3.50271e-05,2.05923e-14,8.06245e-69,3.89843e+15,8.79455e+15,1.0027e+11,1.26931e+16
1.095e+07,143367,4.46461e+06,7.95489e+26,2.68266e+22,4.34259e+12,2.76755,1.68775e+29,0.03468,3.50243e-05,2.05867e-14,8.05771e-69,3.89582e+15,8.78926e+15,1.0019e+11,1.26852e+16
1.105e+07,143308,4.46372e+06,8.17284e+26,2.75419e+22,4.38227e+12,2.76871,1.68436e+29,0.03468,3.50253e-05,2.05885e-14,8.05921e-69,3.89318e+15,8.78393e+15,1.0011e+11,1.26772e+16
