X = 0.734
Y = 0.25
Z = 0.016
mu = 0.601142
Radius,Density,Temp,Mass,Lum,OptD,Kff,KH,Kes,PP,CNO,3a,Deg,Gas,Rad,TotPres
0,0,0,0,0,0,-nan,0,0.03468,0.000180599,2.25008e-10,7.27893e-60,0,0,0,0
1,110000,7.30527e+06,460767,83.2139,45130.1,0.410273,1.24295e+31,0.03468,0.000180599,2.25008e-10,7.27893e-60,2.50518e+15,1.10344e+16,7.18184e+11,1.35403e+16
30001,110000,7.30527e+06,1.2442e+19,2.247e+15,1.35395e+09,0.410273,1.24295e+31,0.03468,0.000180599,2.25008e-10,7.27893e-60,2.50518e+15,1.10344e+16,7.18184e+11,1.35403e+16
70001,110000,7.30527e+06,1.5805e+20,2.85436e+16,3.15915e+09,0.410274,1.24295e+31,0.03468,0.000180598,2.25008e-10,7.27892e-60,2.50518e+15,1.10344e+16,7.18183e+11,1.35403e+16
150001,110000,7.30526e+06,1.55512e+21,2.80851e+17,6.76956e+09,0.410274,1.24294e+31,0.03468,0.000180599,2.25008e-10,7.27893e-60,2.50517e+15,1.10344e+16,7.18181e+11,1.35403e+16
250001,109999,7.30525e+06,7.19954e+21,1.30021e+18,1.12826e+10,0.410276,1.24291e+31,0.03468,0.000180598,2.25008e-10,7.27892e-60,2.50515e+15,1.10343e+16,7.18175e+11,1.35402e+16
350001,109999,7.30523e+06,1.97554e+22,3.56772e+18,1.57956e+10,0.410278,1.24287e+31,0.03468,0.000180598,2.25008e-10,7.27892e-60,2.50513e+15,1.10342e+16,7.18166e+11,1.35401e+16
450001,109998,7.3052e+06,4.19871e+22,7.58253e+18,2.03086e+10,0.410282,1.24282e+31,0.03468,0.000180598,2.25008e-10,7.27892e-60,2.50509e+15,1.10341e+16,7.18155e+11,1.35399e+16
550001,109996,7.30516e+06,7.6659e+22,1.38437e+19,2.48216e+10,0.410286,1.24276e+31,0.03468,0.000180598,2.25008e-10,7.27892e-60,2.50505e+15,1.10339e+16,7.18141e+11,1.35397e+16
650001,109995,7.30512e+06,1.26535e+23,2.28503e+19,2.93346e+10,0.410291,1.24269e+31,0.03468,0.000180598,2.25008e-10,7.27892e-60,2.50499e+15,1.10337e+16,7.18123e+11,1.35394e+16
750001,109993,7.30507e+06,1.9438e+23,3.51011e+19,3.38475e+10,0.410296,1.2426e+31,0.03468,0.000180598,2.25008e-10,7.27891e-60,2.50493e+15,1.10334e+16,7.18103e+11,1.35391e+16
850001,109991,7.30501e+06,2.82956e+23,5.10947e+19,3.83605e+10,0.410303,1.2425e+31,0.03468,0.000180598,2.25008e-10,7.27891e-60,2.50486e+15,1.10332e+16,7.1808e+11,1.35387e+16
950001,109989,7.30494e+06,3.95028e+23,7.13297e+19,4.28735e+10,0.41031,1.24239e+31,0.03468,0.000180598,2.25008e-10,7.27891e-60,2.50477e+15,1.10328e+16,7.18054e+11,1.35383e+16
1.05e+06,109987,7.30487e+06,5.33359e+23,9.63042e+19,4.73865e+10,0.410318,1.24226e+31,0.03468,0.000180598,2.25007e-10,7.2789e-60,2.50468e+15,1.10325e+16,7.18026e+11,1.35379e+16
1.15e+06,109984,7.30479e+06,7.0071e+23,1.26516e+20,5.18994e+10,0.410327,1.24212e+31,0.03468,0.000180598,2.25007e-10,7.2789e-60,2.50458e+15,1.10321e+16,7.17994e+11,1.35374e+16
1.25e+06,109981,7.3047e+06,8.99846e+23,1.62464e+20,5.64124e+10,0.410337,1.24197e+31,0.03468,0.000180598,2.25007e-10,7.27887e-60,2.50448e+15,1.10317e+16,7.1796e+11,1.35369e+16
1.35e+06,109978,7.30461e+06,1.13353e+24,2.04645e+20,6.09253e+10,0.410347,1.24181e+31,0.03468,0.000180598,2.25007e-10,7.27885e-60,2.50436e+15,1.10312e+16,7.17922e+11,1.35363e+16
1.45e+06,109975,7.3045e+06,1.40452e+24,2.53555e+20,6.54382e+10,0.410359,1.24163e+31,0.03468,0.000180598,2.25007e-10,7.27885e-60,2.50423e+15,1.10308e+16,7.17882e+11,1.35357e+16
1.55e+06,109971,7.3044e+06,1.71557e+24,3.09693e+20,6.99512e+10,0.410371,1.24145e+31,0.03468,0.000180598,2.25007e-10,7.27884e-60,2.5041e+15,1.10302e+16,7.17839e+11,1.3535e+16
1.65e+06,109968,7.30428e+06,2.06946e+24,3.73554e+20,7.44641e+10,0.410384,1.24125e+31,0.03468,0.000180598,2.25006e-10,7.2788e-60,2.50395e+15,1.10297e+16,7.17793e+11,1.35343e+16
1.75e+06,109964,7.30415e+06,2.46894e+24,4.45635e+20,7.8977e+10,0.410398,1.24103e+31,0.03468,0.000180598,2.25006e-10,7.27878e-60,2.5038e+15,1.10291e+16,7.17745e+11,1.35336e+16
1.85e+06,109959,7.30402e+06,2.91676e+24,5.2643e+20,8.34898e+10,0.410413,1.24081e+31,0.03468,0.000180598,2.25004e-10,7.27866e-60,2.50364e+15,1.10285e+16,7.17693e+11,1.35328e+16
1.95e+06,109955,7.30388e+06,3.41569e+24,6.16437e+20,8.80027e+10,0.410428,1.24057e+31,0.03468,0.000180597,2.25003e-10,7.27858e-60,2.50347e+15,1.10278e+16,7.17639e+11,1.3532e+16
2.05e+06,109950,7.30374e+06,3.96849e+24,7.16148e+20,9.25155e+10,0.410444,1.24032e+31,0.03468,0.000180597,2.25003e-10,7.27859e-60,2.50329e+15,1.10271e+16,7.17581e+11,1.35311e+16
2.15e+06,109945,7.30359e+06,4.57791e+24,8.26059e+20,9.70284e+10,0.410462,1.24006e+31,0.03468,0.000180597,2.25002e-10,7.27853e-60,2.5031e+15,1.10264e+16,7.17521e+11,1.35302e+16
2.25e+06,109940,7.30342e+06,5.24671e+24,9.46664e+20,1.01541e+11,0.410479,1.23979e+31,0.03468,0.000180597,2.25001e-10,7.27843e-60,2.5029e+15,1.10256e+16,7.17458e+11,1.35292e+16
2.35e+06,109934,7.30326e+06,5.97764e+24,1.07845e+21,1.06054e+11,0.410498,1.2395e+31,0.03468,0.000180597,2.25e-10,7.27836e-60,2.50269e+15,1.10248e+16,7.17392e+11,1.35282e+16
2.45e+06,109929,7.30308e+06,6.77347e+24,1.22193e+21,1.10567e+11,0.410518,1.2392e+31,0.03468,0.000180596,2.24997e-10,7.27813e-60,2.50248e+15,1.1024e+16,7.17323e+11,1.35272e+16
2.55e+06,109923,7.3029e+06,7.63694e+24,1.37757e+21,1.1508e+11,0.410538,1.23889e+31,0.03468,0.000180595,2.24993e-10,7.27788e-60,2.50225e+15,1.10231e+16,7.17251e+11,1.35261e+16
2.65e+06,109917,7.30271e+06,8.57081e+24,1.54587e+21,1.19592e+11,0.410559,1.23856e+31,0.03468,0.000180595,2.24994e-10,7.27794e-60,2.50202e+15,1.10222e+16,7.17177e+11,1.35249e+16
2.75e+06,109910,7.30251e+06,9.57783e+24,1.72733e+21,1.24105e+11,0.410581,1.23823e+31,0.03468,0.000180595,2.24992e-10,7.27783e-60,2.50177e+15,1.10212e+16,7.171e+11,1.35237e+16
2.85e+06,109904,7.30231e+06,1.06608e+25,1.92243e+21,1.28618e+11,0.410604,1.23788e+31,0.03468,0.000180594,2.2499e-10,7.27765e-60,2.50152e+15,1.10203e+16,7.17019e+11,1.35225e+16
2.95e+06,109897,7.3021e+06,1.18223e+25,2.13167e+21,1.3313e+11,0.410628,1.23752e+31,0.03468,0.000180594,2.24988e-10,7.27755e-60,2.50126e+15,1.10193e+16,7.16936e+11,1.35212e+16
3.05e+06,109890,7.30188e+06,1.30653e+25,2.35553e+21,1.37643e+11,0.410652,1.23714e+31,0.03468,0.000180593,2.24984e-10,7.27723e-60,2.50099e+15,1.10182e+16,7.1685e+11,1.35199e+16
3.15e+06,109882,7.30165e+06,1.43924e+25,2.5945e+21,1.42156e+11,0.410678,1.23676e+31,0.03468,0.000180592,2.24978e-10,7.2768e-60,2.50071e+15,1.10171e+16,7.16761e+11,1.35186e+16
3.25e+06,109875,7.30142e+06,1.58065e+25,2.84907e+21,1.46668e+11,0.410704,1.23636e+31,0.03468,0.000180592,2.24979e-10,7.27693e-60,2.50043e+15,1.1016e+16,7.1667e+11,1.35172e+16
3.35e+06,109867,7.30118e+06,1.73101e+25,3.11972e+21,1.51181e+11,0.410731,1.23595e+31,0.03468,0.000180592,2.24977e-10,7.27677e-60,2.50013e+15,1.10149e+16,7.16575e+11,1.35157e+16
3.45e+06,109859,7.30093e+06,1.89062e+25,3.40695e+21,1.55693e+11,0.410759,1.23552e+31,0.03468,0.000180591,2.24974e-10,7.27653e-60,2.49983e+15,1.10137e+16,7.16478e+11,1.35142e+16
3.55e+06,109850,7.30067e+06,2.05974e+25,3.71122e+21,1.60206e+11,0.410787,1.23509e+31,0.03468,0.00018059,2.24972e-10,7.27639e-60,2.49951e+15,1.10125e+16,7.16378e+11,1.35127e+16
3.65e+06,109842,7.30041e+06,2.23865e+25,4.03304e+21,1.64719e+11,0.410817,1.23464e+31,0.03468,0.000180589,2.24966e-10,7.27597e-60,2.49919e+15,1.10112e+16,7.16275e+11,1.35111e+16
3.75e+06,109833,7.30014e+06,2.42762e+25,4.37288e+21,1.69231e+11,0.410847,1.23418e+31,0.03468,0.000180587,2.24958e-10,7.27538e-60,2.49886e+15,1.101e+16,7.16169e+11,1.35095e+16
3.85e+06,109824,7.29986e+06,2.62692e+25,4.73123e+21,1.73743e+11,0.410878,1.23371e+31,0.03468,0.000180588,2.2496e-10,7.27556e-60,2.49851e+15,1.10086e+16,7.1606e+11,1.35079e+16
3.95e+06,109815,7.29958e+06,2.83684e+25,5.10857e+21,1.78256e+11,0.41091,1.23322e+31,0.03468,0.000180587,2.24957e-10,7.27536e-60,2.49816e+15,1.10073e+16,7.15949e+11,1.35062e+16
4.05e+06,109806,7.29929e+06,3.05764e+25,5.50537e+21,1.82768e+11,0.410942,1.23273e+31,0.03468,0.000180586,2.24953e-10,7.27505e-60,2.49781e+15,1.10059e+16,7.15834e+11,1.35044e+16
4.15e+06,109796,7.29899e+06,3.28959e+25,5.92211e+21,1.87281e+11,0.410976,1.23222e+31,0.03468,0.000180586,2.24951e-10,7.27488e-60,2.49744e+15,1.10045e+16,7.15717e+11,1.35026e+16
4.25e+06,109786,7.29868e+06,3.53298e+25,6.35929e+21,1.91793e+11,0.41101,1.2317e+31,0.03468,0.000180584,2.24943e-10,7.27435e-60,2.49706e+15,1.1003e+16,7.15597e+11,1.35008e+16
4.35e+06,109776,7.29837e+06,3.78807e+25,6.81736e+21,1.96305e+11,0.411045,1.23116e+31,0.03468,0.000180582,2.24933e-10,7.27362e-60,2.49668e+15,1.10015e+16,7.15474e+11,1.34989e+16
4.45e+06,109765,7.29805e+06,4.05514e+25,7.29682e+21,2.00818e+11,0.411081,1.23062e+31,0.03468,0.000180582,2.24936e-10,7.27385e-60,2.49628e+15,1.1e+16,7.15348e+11,1.3497e+16
4.55e+06,109755,7.29772e+06,4.33445e+25,7.79813e+21,2.0533e+11,0.411118,1.23006e+31,0.03468,0.000180582,2.24933e-10,7.27361e-60,2.49588e+15,1.09984e+16,7.15219e+11,1.3495e+16
4.65e+06,109744,7.29739e+06,4.62629e+25,8.32177e+21,2.09842e+11,0.411156,1.22949e+31,0.03468,0.000180581,2.24927e-10,7.27323e-60,2.49547e+15,1.09968e+16,7.15088e+11,1.3493e+16
4.75e+06,109733,7.29704e+06,4.93093e+25,8.86821e+21,2.14354e+11,0.411194,1.22891e+31,0.03468,0.00018058,2.24924e-10,7.27302e-60,2.49504e+15,1.09952e+16,7.14954e+11,1.3491e+16
4.85e+06,109721,7.29669e+06,5.24863e+25,9.43793e+21,2.18866e+11,0.411233,1.22832e+31,0.03468,0.000180578,2.24915e-10,7.27239e-60,2.49461e+15,1.09935e+16,7.14817e+11,1.34889e+16
4.95e+06,109710,7.29634e+06,5.57968e+25,1.00314e+22,2.23378e+11,0.411273,1.22771e+31,0.03468,0.000180575,2.24903e-10,7.2715e-60,2.49418e+15,1.09918e+16,7.14677e+11,1.34867e+16
5.05e+06,109698,7.29597e+06,5.92433e+25,1.06491e+22,2.27891e+11,0.411314,1.22709e+31,0.03468,0.000180576,2.24907e-10,7.27178e-60,2.49373e+15,1.09901e+16,7.14534e+11,1.34846e+16
5.15e+06,109686,7.2956e+06,6.28287e+25,1.12914e+22,2.32403e+11,0.411356,1.22646e+31,0.03468,0.000180575,2.24903e-10,7.2715e-60,2.49327e+15,1.09883e+16,7.14388e+11,1.34823e+16
5.25e+06,109674,7.29522e+06,6.65557e+25,1.19589e+22,2.36915e+11,0.411398,1.22582e+31,0.03468,0.000180574,2.24897e-10,7.27105e-60,2.49281e+15,1.09865e+16,7.1424e+11,1.34801e+16
5.35e+06,109661,7.29484e+06,7.0427e+25,1.26521e+22,2.41427e+11,0.411442,1.22517e+31,0.03468,0.000180573,2.24893e-10,7.2708e-60,2.49233e+15,1.09847e+16,7.14089e+11,1.34778e+16
5.45e+06,109648,7.29444e+06,7.44453e+25,1.33713e+22,2.45938e+11,0.411486,1.2245e+31,0.03468,0.000180571,2.24883e-10,7.27007e-60,2.49185e+15,1.09828e+16,7.13935e+11,1.34754e+16
5.55e+06,109635,7.29404e+06,7.86132e+25,1.4117e+22,2.5045e+11,0.411531,1.22382e+31,0.03468,0.000180567,2.24868e-10,7.26904e-60,2.49136e+15,1.09809e+16,7.13778e+11,1.3473e+16
5.65e+06,109622,7.29363e+06,8.29336e+25,1.48898e+22,2.54962e+11,0.411577,1.22313e+31,0.03468,0.000180568,2.24873e-10,7.26937e-60,2.49086e+15,1.0979e+16,7.13618e+11,1.34706e+16
5.75e+06,109609,7.29322e+06,8.74091e+25,1.569e+22,2.59474e+11,0.411623,1.22243e+31,0.03468,0.000180567,2.24868e-10,7.26904e-60,2.49035e+15,1.0977e+16,7.13456e+11,1.34681e+16
5.85e+06,109595,7.2928e+06,9.20425e+25,1.65182e+22,2.63986e+11,0.411671,1.22172e+31,0.03468,0.000180566,2.24861e-10,7.26853e-60,2.48983e+15,1.0975e+16,7.1329e+11,1.34656e+16
5.95e+06,109581,7.29237e+06,9.68364e+25,1.73748e+22,2.68497e+11,0.411719,1.22099e+31,0.03468,0.000180565,2.24857e-10,7.26824e-60,2.4893e+15,1.0973e+16,7.13122e+11,1.3463e+16
6.05e+06,109567,7.29193e+06,1.01794e+26,1.82602e+22,2.73009e+11,0.411768,1.22026e+31,0.03468,0.000180562,2.24845e-10,7.26741e-60,2.48876e+15,1.09709e+16,7.12951e+11,1.34604e+16
6.15e+06,109552,7.29148e+06,1.06917e+26,1.91749e+22,2.77521e+11,0.411818,1.21951e+31,0.03468,0.000180558,2.24828e-10,7.26623e-60,2.48822e+15,1.09688e+16,7.12778e+11,1.34577e+16
6.25e+06,109538,7.29103e+06,1.12208e+26,2.01193e+22,2.82032e+11,0.411869,1.21875e+31,0.03468,0.000180559,2.24834e-10,7.2666e-60,2.48767e+15,1.09666e+16,7.12601e+11,1.3455e+16
6.35e+06,109523,7.29057e+06,1.17671e+26,2.10939e+22,2.86544e+11,0.411921,1.21797e+31,0.03468,0.000180558,2.24829e-10,7.26623e-60,2.4871e+15,1.09645e+16,7.12422e+11,1.34523e+16
6.45e+06,109508,7.29011e+06,1.23308e+26,2.20993e+22,2.91055e+11,0.411973,1.21719e+31,0.03468,0.000180557,2.2482e-10,7.26565e-60,2.48653e+15,1.09623e+16,7.1224e+11,1.34495e+16
6.55e+06,109493,7.28964e+06,1.29122e+26,2.31357e+22,2.95567e+11,0.412026,1.21639e+31,0.03468,0.000180555,2.24816e-10,7.26533e-60,2.48595e+15,1.096e+16,7.12055e+11,1.34467e+16
6.65e+06,109477,7.28915e+06,1.35115e+26,2.42036e+22,3.00078e+11,0.41208,1.21559e+31,0.03468,0.000180553,2.24803e-10,7.2644e-60,2.48536e+15,1.09577e+16,7.11867e+11,1.34438e+16
6.75e+06,109461,7.28867e+06,1.41291e+26,2.53036e+22,3.04589e+11,0.412135,1.21477e+31,0.03468,0.000180548,2.24784e-10,7.26306e-60,2.48476e+15,1.09554e+16,7.11676e+11,1.34409e+16
6.85e+06,109445,7.28817e+06,1.47651e+26,2.6436e+22,3.09101e+11,0.412191,1.21394e+31,0.03468,0.000180549,2.2479e-10,7.26349e-60,2.48416e+15,1.09531e+16,7.11483e+11,1.34379e+16
6.95e+06,109429,7.28767e+06,1.54199e+26,2.76013e+22,3.13612e+11,0.412247,1.21309e+31,0.03468,0.000180548,2.24784e-10,7.26308e-60,2.48354e+15,1.09507e+16,7.11287e+11,1.34349e+16
7.05e+06,109412,7.28716e+06,1.60936e+26,2.87999e+22,3.18123e+11,0.412305,1.21224e+31,0.03468,0.000180546,2.24775e-10,7.26243e-60,2.48292e+15,1.09483e+16,7.11088e+11,1.34319e+16
7.15e+06,109396,7.28664e+06,1.67867e+26,3.00323e+22,3.22634e+11,0.412363,1.21137e+31,0.03468,0.000180545,2.2477e-10,7.26207e-60,2.48229e+15,1.09458e+16,7.10887e+11,1.34288e+16
7.25e+06,109379,7.28612e+06,1.74993e+26,3.12989e+22,3.27145e+11,0.412422,1.2105e+31,0.03468,0.000180542,2.24755e-10,7.26103e-60,2.48165e+15,1.09433e+16,7.10682e+11,1.34257e+16
7.35e+06,109362,7.28559e+06,1.82317e+26,3.26002e+22,3.31656e+11,0.412482,1.20961e+31,0.03468,0.000180537,2.24734e-10,7.25955e-60,2.481e+15,1.09408e+16,7.10475e+11,1.34225e+16
7.45e+06,109344,7.28505e+06,1.89842e+26,3.39365e+22,3.36167e+11,0.412543,1.20871e+31,0.03468,0.000180539,2.24741e-10,7.26002e-60,2.48034e+15,1.09383e+16,7.10265e+11,1.34193e+16
7.55e+06,109326,7.2845e+06,1.97571e+26,3.53084e+22,3.40678e+11,0.412604,1.20779e+31,0.03468,0.000180537,2.24734e-10,7.25957e-60,2.47967e+15,1.09357e+16,7.10052e+11,1.34161e+16
7.65e+06,109309,7.28395e+06,2.05506e+26,3.67161e+22,3.45189e+11,0.412666,1.20687e+31,0.03468,0.000180535,2.24724e-10,7.25885e-60,2.47899e+15,1.09331e+16,7.09837e+11,1.34128e+16
7.75e+06,109290,7.28339e+06,2.13649e+26,3.81603e+22,3.497e+11,0.41273,1.20594e+31,0.03468,0.000180534,2.24719e-10,7.25846e-60,2.47831e+15,1.09304e+16,7.09618e+11,1.34094e+16
7.85e+06,109272,7.28282e+06,2.22004e+26,3.96413e+22,3.5421e+11,0.412794,1.20499e+31,0.03468,0.00018053,2.24703e-10,7.25732e-60,2.47762e+15,1.09277e+16,7.09397e+11,1.3406e+16
7.95e+06,109254,7.28225e+06,2.30574e+26,4.11594e+22,3.58721e+11,0.412858,1.20403e+31,0.03468,0.000180525,2.2468e-10,7.25569e-60,2.47691e+15,1.0925e+16,7.09174e+11,1.34026e+16
8.05e+06,109235,7.28167e+06,2.3936e+26,4.27153e+22,3.63232e+11,0.412924,1.20306e+31,0.03468,0.000180526,2.24687e-10,7.25621e-60,2.4762e+15,1.09222e+16,7.08947e+11,1.33992e+16
8.15e+06,109216,7.28108e+06,2.48365e+26,4.43092e+22,3.67742e+11,0.41299,1.20208e+31,0.03468,0.000180525,2.2468e-10,7.25571e-60,2.47548e+15,1.09195e+16,7.08718e+11,1.33957e+16
8.25e+06,109196,7.28048e+06,2.57593e+26,4.59416e+22,3.72253e+11,0.413058,1.20109e+31,0.03468,0.000180523,2.24669e-10,7.25493e-60,2.47475e+15,1.09166e+16,7.08486e+11,1.33921e+16
8.35e+06,109177,7.27988e+06,2.67045e+26,4.76129e+22,3.76763e+11,0.413126,1.20009e+31,0.03468,0.000180521,2.24663e-10,7.2545e-60,2.47402e+15,1.09138e+16,7.08251e+11,1.33885e+16
8.45e+06,109157,7.27927e+06,2.76725e+26,4.93235e+22,3.81274e+11,0.413195,1.19908e+31,0.03468,0.000180517,2.24645e-10,7.25326e-60,2.47327e+15,1.09109e+16,7.08013e+11,1.33849e+16
8.55e+06,109137,7.27865e+06,2.86635e+26,5.10739e+22,3.85784e+11,0.413265,1.19805e+31,0.03468,0.000180511,2.2462e-10,7.25149e-60,2.47252e+15,1.0908e+16,7.07773e+11,1.33812e+16
8.65e+06,109117,7.27803e+06,2.96777e+26,5.28645e+22,3.90294e+11,0.413335,1.19701e+31,0.03468,0.000180513,2.24628e-10,7.25205e-60,2.47176e+15,1.0905e+16,7.0753e+11,1.33775e+16
8.75e+06,109097,7.2774e+06,3.07155e+26,5.46956e+22,3.94804e+11,0.413407,1.19597e+31,0.03468,0.000180512,2.2462e-10,7.25151e-60,2.47098e+15,1.0902e+16,7.07284e+11,1.33737e+16
8.85e+06,109076,7.27676e+06,3.17771e+26,5.65677e+22,3.99314e+11,0.413479,1.19491e+31,0.03468,0.000180509,2.24608e-10,7.25066e-60,2.4702e+15,1.0899e+16,7.07036e+11,1.33699e+16
8.95e+06,109055,7.27611e+06,3.28627e+26,5.84811e+22,4.03824e+11,0.413552,1.19384e+31,0.03468,0.000180507,2.24602e-10,7.25019e-60,2.46942e+15,1.0896e+16,7.06785e+11,1.33661e+16
9.05e+06,109034,7.27546e+06,3.39727e+26,6.04364e+22,4.08334e+11,0.413626,1.19276e+31,0.03468,0.000180503,2.24583e-10,7.24885e-60,2.46862e+15,1.08929e+16,7.06531e+11,1.33622e+16
9.15e+06,109012,7.27479e+06,3.51072e+26,6.24339e+22,4.12844e+11,0.413701,1.19167e+31,0.03468,0.000180497,2.24556e-10,7.24693e-60,2.46781e+15,1.08897e+16,7.06274e+11,1.33583e+16
9.25e+06,108991,7.27413e+06,3.62666e+26,6.44739e+22,4.17354e+11,0.413777,1.19056e+31,0.03468,0.000180499,2.24564e-10,7.24754e-60,2.467e+15,1.08866e+16,7.06015e+11,1.33543e+16
9.35e+06,108969,7.27345e+06,3.74511e+26,6.65569e+22,4.21864e+11,0.413853,1.18945e+31,0.03468,0.000180497,2.24556e-10,7.24696e-60,2.46618e+15,1.08834e+16,7.05752e+11,1.33503e+16
9.45e+06,108947,7.27277e+06,3.86609e+26,6.86833e+22,4.26374e+11,0.413931,1.18833e+31,0.03468,0.000180494,2.24543e-10,7.24604e-60,2.46534e+15,1.08802e+16,7.05488e+11,1.33462e+16
9.55e+06,108925,7.27208e+06,3.98964e+26,7.08535e+22,4.30883e+11,0.414009,1.18719e+31,0.03468,0.000180493,2.24536e-10,7.24554e-60,2.4645e+15,1.08769e+16,7.0522e+11,1.33421e+16
9.65e+06,108902,7.27138e+06,4.11578e+26,7.30679e+22,4.35393e+11,0.414088,1.18605e+31,0.03468,0.000180488,2.24516e-10,7.24409e-60,2.46366e+15,1.08736e+16,7.0495e+11,1.3338e+16
9.75e+06,108880,7.27068e+06,4.24453e+26,7.53268e+22,4.39902e+11,0.414167,1.18489e+31,0.03468,0.000180481,2.24486e-10,7.24203e-60,2.4628e+15,1.08703e+16,7.04677e+11,1.33338e+16
9.85e+06,108857,7.26997e+06,4.37592e+26,7.76307e+22,4.44412e+11,0.414248,1.18372e+31,0.03468,0.000180483,2.24496e-10,7.24269e-60,2.46193e+15,1.0867e+16,7.04401e+11,1.33296e+16
9.95e+06,108833,7.26925e+06,4.50998e+26,7.998e+22,4.48921e+11,0.41433,1.18254e+31,0.03468,0.000180482,2.24487e-10,7.24206e-60,2.46106e+15,1.08636e+16,7.04123e+11,1.33253e+16
1.005e+07,108810,7.26852e+06,4.64673e+26,8.23749e+22,4.5343e+11,0.414412,1.18135e+31,0.03468,0.000180479,2.24473e-10,7.24108e-60,2.46018e+15,1.08601e+16,7.03842e+11,1.3321e+16
1.015e+07,108786,7.26779e+06,4.7862e+26,8.48159e+22,4.5794e+11,0.414495,1.18016e+31,0.03468,0.000180477,2.24465e-10,7.24054e-60,2.45929e+15,1.08567e+16,7.03558e+11,1.33167e+16
1.025e+07,108762,7.26705e+06,4.92841e+26,8.73035e+22,4.62449e+11,0.414579,1.17894e+31,0.03468,0.000180472,2.24443e-10,7.23899e-60,2.45839e+15,1.08532e+16,7.03272e+11,1.33123e+16
1.035e+07,108738,7.2663e+06,5.0734e+26,8.98379e+22,4.66958e+11,0.414664,1.17772e+31,0.03468,0.000180464,2.24412e-10,7.23679e-60,2.45748e+15,1.08497e+16,7.02982e+11,1.33079e+16
1.045e+07,108714,7.26555e+06,5.22118e+26,9.24195e+22,4.71467e+11,0.41475,1.17649e+31,0.03468,0.000180467,2.24422e-10,7.23749e-60,2.45656e+15,1.08461e+16,7.02691e+11,1.33034e+16
1.055e+07,108689,7.26479e+06,5.37178e+26,9.50487e+22,4.75976e+11,0.414836,1.17525e+31,0.03468,0.000180465,2.24413e-10,7.23682e-60,2.45564e+15,1.08425e+16,7.02396e+11,1.32989e+16
1.065e+07,108665,7.26402e+06,5.52523e+26,9.77259e+22,4.80485e+11,0.414924,1.174e+31,0.03468,0.000180462,2.24398e-10,7.23577e-60,2.4547e+15,1.08389e+16,7.02099e+11,1.32943e+16
1.075e+07,108640,7.26324e+06,5.68155e+26,1.00451e+23,4.84993e+11,0.415012,1.17274e+31,0.03468,0.00018046,2.24389e-10,7.23519e-60,2.45376e+15,1.08353e+16,7.01799e+11,1.32897e+16
1.085e+07,108614,7.26246e+06,5.84077e+26,1.03226e+23,4.89502e+11,0.415101,1.17146e+31,0.03468,0.000180455,2.24366e-10,7.23354e-60,2.45281e+15,1.08316e+16,7.01497e+11,1.32851e+16
1.095e+07,108589,7.26167e+06,6.00291e+26,1.06049e+23,4.94011e+11,0.415191,1.17018e+31,0.03468,0.000180447,2.24333e-10,7.23119e-60,2.45185e+15,1.08279e+16,7.01192e+11,1.32804e+16
