X = 0.734
Y = 0.25
Z = 0.016
mu = 0.601142
Radius,Density,Temp,Mass,Lum,OptD,Kff,KH,Kes,PP,CNO,3a,Deg,Gas,Rad,TotPres
0,0,0,0,0,0,-nan,0,0.03468,0.000439492,7.84871e-09,1.78947e-56,0,0,0,0
1,137000,8.63701e+06,573864,252.213,36473.5,0.26623,6.26128e+31,0.03468,0.000439492,7.84871e-09,1.78947e-56,3.61176e+15,1.62482e+16,1.40328e+12,1.98613e+16
30001,137000,8.63701e+06,1.54959e+19,6.81044e+15,1.09424e+09,0.26623,6.26128e+31,0.03468,0.000439492,7.84871e-09,1.78947e-56,3.61176e+15,1.62482e+16,1.40328e+12,1.98613e+16
70001,137000,8.63701e+06,1.96844e+20,8.65128e+16,2.55318e+09,0.26623,6.26127e+31,0.03468,0.000439492,7.84871e-09,1.78947e-56,3.61176e+15,1.62482e+16,1.40328e+12,1.98613e+16
150001,137000,8.637e+06,1.93683e+21,8.51232e+17,5.47107e+09,0.266231,6.26121e+31,0.03468,0.000439492,7.84871e-09,1.78947e-56,3.61175e+15,1.62481e+16,1.40327e+12,1.98613e+16
250001,136999,8.63699e+06,8.9667e+21,3.94082e+18,9.11842e+09,0.266232,6.26107e+31,0.03468,0.000439492,7.84871e-09,1.78947e-56,3.61172e+15,1.6248e+16,1.40326e+12,1.98611e+16
350001,136998,8.63696e+06,2.46044e+22,1.08134e+19,1.27658e+10,0.266234,6.26087e+31,0.03468,0.000439492,7.84871e-09,1.78947e-56,3.61168e+15,1.62478e+16,1.40325e+12,1.98609e+16
450001,136997,8.63692e+06,5.2293e+22,2.29819e+19,1.64131e+10,0.266236,6.26061e+31,0.03468,0.000439492,7.84871e-09,1.78946e-56,3.61162e+15,1.62476e+16,1.40322e+12,1.98607e+16
550001,136995,8.63688e+06,9.54752e+22,4.19589e+19,2.00605e+10,0.266239,6.26027e+31,0.03468,0.000439492,7.84871e-09,1.78946e-56,3.61155e+15,1.62474e+16,1.40319e+12,1.98603e+16
650001,136993,8.63682e+06,1.57594e+23,6.92567e+19,2.37078e+10,0.266242,6.25987e+31,0.03468,0.000439492,7.8487e-09,1.78946e-56,3.61147e+15,1.6247e+16,1.40316e+12,1.98599e+16
750001,136991,8.63676e+06,2.42091e+23,1.06387e+20,2.73551e+10,0.266246,6.25941e+31,0.03468,0.000439492,7.8487e-09,1.78946e-56,3.61137e+15,1.62466e+16,1.40311e+12,1.98594e+16
850001,136989,8.63669e+06,3.52408e+23,1.54861e+20,3.10025e+10,0.26625,6.25887e+31,0.03468,0.000439492,7.8487e-09,1.78946e-56,3.61126e+15,1.62462e+16,1.40307e+12,1.98589e+16
950001,136986,8.6366e+06,4.91988e+23,2.1619e+20,3.46498e+10,0.266255,6.25827e+31,0.03468,0.000439492,7.8487e-09,1.78946e-56,3.61114e+15,1.62457e+16,1.40301e+12,1.98583e+16
1.05e+06,136983,8.63651e+06,6.64271e+23,2.91884e+20,3.82971e+10,0.266261,6.2576e+31,0.03468,0.000439492,7.8487e-09,1.78946e-56,3.611e+15,1.62452e+16,1.40295e+12,1.98576e+16
1.15e+06,136979,8.63641e+06,8.72699e+23,3.83452e+20,4.19444e+10,0.266267,6.25687e+31,0.03468,0.000439492,7.84869e-09,1.78946e-56,3.61085e+15,1.62446e+16,1.40289e+12,1.98568e+16
1.25e+06,136975,8.6363e+06,1.12071e+24,4.92402e+20,4.55917e+10,0.266274,6.25607e+31,0.03468,0.000439492,7.84868e-09,1.78945e-56,3.61068e+15,1.62439e+16,1.40282e+12,1.9856e+16
1.35e+06,136971,8.63618e+06,1.41175e+24,6.20242e+20,4.9239e+10,0.266281,6.25521e+31,0.03468,0.000439492,7.84867e-09,1.78945e-56,3.6105e+15,1.62432e+16,1.40274e+12,1.98551e+16
1.45e+06,136967,8.63606e+06,1.74925e+24,7.68478e+20,5.28863e+10,0.266289,6.25427e+31,0.03468,0.000439492,7.84867e-09,1.78945e-56,3.61031e+15,1.62425e+16,1.40266e+12,1.98542e+16
1.55e+06,136962,8.63592e+06,2.13665e+24,9.38617e+20,5.65336e+10,0.266297,6.25327e+31,0.03468,0.000439491,7.84866e-09,1.78944e-56,3.6101e+15,1.62416e+16,1.40257e+12,1.98532e+16
1.65e+06,136957,8.63577e+06,2.57739e+24,1.13216e+21,6.01808e+10,0.266306,6.25221e+31,0.03468,0.000439491,7.84864e-09,1.78943e-56,3.60988e+15,1.62408e+16,1.40247e+12,1.98521e+16
1.75e+06,136952,8.63562e+06,3.07491e+24,1.35062e+21,6.38281e+10,0.266316,6.25108e+31,0.03468,0.000439491,7.84863e-09,1.78943e-56,3.60965e+15,1.62399e+16,1.40237e+12,1.98509e+16
1.85e+06,136946,8.63545e+06,3.63265e+24,1.59548e+21,6.74753e+10,0.266326,6.24988e+31,0.03468,0.00043949,7.84857e-09,1.7894e-56,3.6094e+15,1.62389e+16,1.40227e+12,1.98497e+16
1.95e+06,136940,8.63528e+06,4.25403e+24,1.86826e+21,7.11226e+10,0.266336,6.24861e+31,0.03468,0.000439489,7.84853e-09,1.78938e-56,3.60914e+15,1.62378e+16,1.40215e+12,1.98484e+16
2.05e+06,136934,8.6351e+06,4.94249e+24,2.17044e+21,7.47698e+10,0.266347,6.24728e+31,0.03468,0.000439489,7.84853e-09,1.78938e-56,3.60887e+15,1.62368e+16,1.40204e+12,1.9847e+16
2.15e+06,136927,8.63491e+06,5.70148e+24,2.50354e+21,7.8417e+10,0.266359,6.24588e+31,0.03468,0.000439489,7.8485e-09,1.78936e-56,3.60858e+15,1.62356e+16,1.40191e+12,1.98456e+16
2.25e+06,136921,8.63471e+06,6.53441e+24,2.86903e+21,8.20642e+10,0.266371,6.24442e+31,0.03468,0.000439488,7.84845e-09,1.78934e-56,3.60828e+15,1.62344e+16,1.40178e+12,1.98441e+16
2.35e+06,136913,8.6345e+06,7.44473e+24,3.26843e+21,8.57113e+10,0.266384,6.24289e+31,0.03468,0.000439488,7.84841e-09,1.78932e-56,3.60796e+15,1.62332e+16,1.40165e+12,1.98425e+16
2.45e+06,136906,8.63428e+06,8.43585e+24,3.70321e+21,8.93585e+10,0.266398,6.24129e+31,0.03468,0.000439486,7.84829e-09,1.78926e-56,3.60763e+15,1.62319e+16,1.4015e+12,1.98409e+16
2.55e+06,136898,8.63405e+06,9.51123e+24,4.17488e+21,9.30056e+10,0.266412,6.23963e+31,0.03468,0.000439484,7.84816e-09,1.78919e-56,3.60729e+15,1.62305e+16,1.40135e+12,1.98392e+16
2.65e+06,136890,8.63381e+06,1.06743e+25,4.68491e+21,9.66528e+10,0.266426,6.23791e+31,0.03468,0.000439484,7.8482e-09,1.78921e-56,3.60693e+15,1.62291e+16,1.4012e+12,1.98374e+16
2.75e+06,136882,8.63357e+06,1.19284e+25,5.2348e+21,1.003e+11,0.266441,6.23611e+31,0.03468,0.000439483,7.84814e-09,1.78918e-56,3.60656e+15,1.62276e+16,1.40104e+12,1.98356e+16
2.85e+06,136873,8.63331e+06,1.32771e+25,5.82602e+21,1.03947e+11,0.266457,6.23425e+31,0.03468,0.000439482,7.84805e-09,1.78913e-56,3.60617e+15,1.62261e+16,1.40088e+12,1.98337e+16
2.95e+06,136864,8.63305e+06,1.47237e+25,6.46007e+21,1.07594e+11,0.266473,6.23233e+31,0.03468,0.000439481,7.84799e-09,1.78911e-56,3.60578e+15,1.62246e+16,1.4007e+12,1.98317e+16
3.05e+06,136854,8.63277e+06,1.62717e+25,7.13842e+21,1.11241e+11,0.26649,6.23034e+31,0.03468,0.000439478,7.84782e-09,1.78902e-56,3.60536e+15,1.62229e+16,1.40053e+12,1.98297e+16
3.15e+06,136845,8.63249e+06,1.79244e+25,7.86254e+21,1.14888e+11,0.266507,6.22828e+31,0.03468,0.000439475,7.8476e-09,1.78891e-56,3.60494e+15,1.62212e+16,1.40034e+12,1.98276e+16
3.25e+06,136835,8.6322e+06,1.96854e+25,8.63392e+21,1.18535e+11,0.266525,6.22616e+31,0.03468,0.000439476,7.84767e-09,1.78895e-56,3.6045e+15,1.62195e+16,1.40015e+12,1.98254e+16
3.35e+06,136824,8.6319e+06,2.15581e+25,9.45403e+21,1.22182e+11,0.266544,6.22397e+31,0.03468,0.000439475,7.84759e-09,1.78891e-56,3.60405e+15,1.62177e+16,1.39996e+12,1.98232e+16
3.45e+06,136814,8.63159e+06,2.35457e+25,1.03243e+22,1.25829e+11,0.266563,6.22172e+31,0.03468,0.000439473,7.84746e-09,1.78884e-56,3.60358e+15,1.62159e+16,1.39976e+12,1.98209e+16
3.55e+06,136803,8.63127e+06,2.56519e+25,1.12463e+22,1.29476e+11,0.266582,6.2194e+31,0.03468,0.000439471,7.84739e-09,1.78881e-56,3.6031e+15,1.6214e+16,1.39955e+12,1.98185e+16
3.65e+06,136792,8.63094e+06,2.78799e+25,1.22214e+22,1.33123e+11,0.266602,6.21701e+31,0.03468,0.000439468,7.84717e-09,1.7887e-56,3.60261e+15,1.6212e+16,1.39934e+12,1.9816e+16
3.75e+06,136780,8.6306e+06,3.02332e+25,1.32511e+22,1.3677e+11,0.266623,6.21456e+31,0.03468,0.000439463,7.84686e-09,1.78854e-56,3.6021e+15,1.621e+16,1.39912e+12,1.98135e+16
3.85e+06,136768,8.63025e+06,3.27153e+25,1.43368e+22,1.40417e+11,0.266644,6.21205e+31,0.03468,0.000439465,7.84696e-09,1.78859e-56,3.60158e+15,1.6208e+16,1.39889e+12,1.9811e+16
3.95e+06,136756,8.6299e+06,3.53294e+25,1.548e+22,1.44064e+11,0.266666,6.20947e+31,0.03468,0.000439463,7.84685e-09,1.78854e-56,3.60104e+15,1.62059e+16,1.39866e+12,1.98083e+16
4.05e+06,136743,8.62953e+06,3.80791e+25,1.66822e+22,1.4771e+11,0.266689,6.20683e+31,0.03468,0.000439461,7.84669e-09,1.78846e-56,3.6005e+15,1.62037e+16,1.39843e+12,1.98056e+16
4.15e+06,136731,8.62916e+06,4.09677e+25,1.79449e+22,1.51357e+11,0.266712,6.20412e+31,0.03468,0.000439459,7.8466e-09,1.78841e-56,3.59993e+15,1.62015e+16,1.39818e+12,1.98028e+16
4.25e+06,136718,8.62878e+06,4.39986e+25,1.92693e+22,1.55004e+11,0.266735,6.20134e+31,0.03468,0.000439455,7.84633e-09,1.78828e-56,3.59936e+15,1.61992e+16,1.39794e+12,1.98e+16
4.35e+06,136704,8.62839e+06,4.71752e+25,2.06571e+22,1.58651e+11,0.266759,6.1985e+31,0.03468,0.000439449,7.84594e-09,1.78809e-56,3.59877e+15,1.61969e+16,1.39768e+12,1.97971e+16
4.45e+06,136690,8.62799e+06,5.0501e+25,2.21096e+22,1.62297e+11,0.266784,6.1956e+31,0.03468,0.000439451,7.84606e-09,1.78815e-56,3.59817e+15,1.61945e+16,1.39742e+12,1.97941e+16
4.55e+06,136676,8.62757e+06,5.39793e+25,2.36283e+22,1.65944e+11,0.266809,6.19263e+31,0.03468,0.000439449,7.84594e-09,1.78808e-56,3.59755e+15,1.61921e+16,1.39716e+12,1.9791e+16
4.65e+06,136662,8.62716e+06,5.76136e+25,2.52145e+22,1.69591e+11,0.266835,6.1896e+31,0.03468,0.000439446,7.84574e-09,1.78798e-56,3.59692e+15,1.61896e+16,1.39689e+12,1.97879e+16
4.75e+06,136647,8.62673e+06,6.14072e+25,2.68699e+22,1.73237e+11,0.266861,6.1865e+31,0.03468,0.000439444,7.84563e-09,1.78793e-56,3.59628e+15,1.61871e+16,1.39661e+12,1.97847e+16
4.85e+06,136632,8.62629e+06,6.53634e+25,2.85957e+22,1.76884e+11,0.266888,6.18334e+31,0.03468,0.000439439,7.8453e-09,1.78777e-56,3.59562e+15,1.61845e+16,1.39632e+12,1.97815e+16
4.95e+06,136617,8.62584e+06,6.94858e+25,3.03933e+22,1.8053e+11,0.266916,6.18012e+31,0.03468,0.000439431,7.84484e-09,1.78754e-56,3.59495e+15,1.61818e+16,1.39604e+12,1.97782e+16
5.05e+06,136601,8.62539e+06,7.37777e+25,3.22643e+22,1.84177e+11,0.266944,6.17683e+31,0.03468,0.000439434,7.84499e-09,1.78761e-56,3.59427e+15,1.61791e+16,1.39574e+12,1.97748e+16
5.15e+06,136586,8.62492e+06,7.82424e+25,3.421e+22,1.87823e+11,0.266972,6.17347e+31,0.03468,0.000439431,7.84484e-09,1.78753e-56,3.59357e+15,1.61764e+16,1.39544e+12,1.97713e+16
5.25e+06,136569,8.62445e+06,8.28834e+25,3.62319e+22,1.9147e+11,0.267001,6.17006e+31,0.03468,0.000439428,7.84461e-09,1.78742e-56,3.59286e+15,1.61735e+16,1.39513e+12,1.97678e+16
5.35e+06,136553,8.62397e+06,8.7704e+25,3.83312e+22,1.95116e+11,0.267031,6.16658e+31,0.03468,0.000439426,7.84448e-09,1.78735e-56,3.59214e+15,1.61707e+16,1.39482e+12,1.97642e+16
5.45e+06,136536,8.62348e+06,9.27076e+25,4.05096e+22,1.98763e+11,0.267061,6.16303e+31,0.03468,0.00043942,7.8441e-09,1.78716e-56,3.5914e+15,1.61678e+16,1.3945e+12,1.97606e+16
5.55e+06,136519,8.62297e+06,9.78976e+25,4.27682e+22,2.02409e+11,0.267092,6.15942e+31,0.03468,0.000439411,7.84356e-09,1.7869e-56,3.59065e+15,1.61648e+16,1.39418e+12,1.97568e+16
5.65e+06,136501,8.62246e+06,1.03277e+26,4.51086e+22,2.06055e+11,0.267123,6.15575e+31,0.03468,0.000439414,7.84373e-09,1.78698e-56,3.58988e+15,1.61618e+16,1.39385e+12,1.97531e+16
5.75e+06,136484,8.62195e+06,1.0885e+26,4.75321e+22,2.09702e+11,0.267155,6.15202e+31,0.03468,0.000439411,7.84356e-09,1.7869e-56,3.58911e+15,1.61587e+16,1.39351e+12,1.97492e+16
5.85e+06,136466,8.62142e+06,1.1462e+26,5.00402e+22,2.13348e+11,0.267188,6.14822e+31,0.03468,0.000439408,7.84329e-09,1.78676e-56,3.58831e+15,1.61556e+16,1.39317e+12,1.97453e+16
5.95e+06,136447,8.62088e+06,1.20589e+26,5.26341e+22,2.16994e+11,0.267221,6.14436e+31,0.03468,0.000439405,7.84314e-09,1.78669e-56,3.58751e+15,1.61524e+16,1.39282e+12,1.97413e+16
6.05e+06,136429,8.62033e+06,1.26761e+26,5.53153e+22,2.2064e+11,0.267255,6.14044e+31,0.03468,0.000439399,7.84271e-09,1.78647e-56,3.58669e+15,1.61492e+16,1.39247e+12,1.97372e+16
6.15e+06,136410,8.61978e+06,1.3314e+26,5.80852e+22,2.24286e+11,0.267289,6.13645e+31,0.03468,0.000439388,7.84209e-09,1.78616e-56,3.58586e+15,1.61459e+16,1.39211e+12,1.97331e+16
6.25e+06,136390,8.61921e+06,1.39729e+26,6.0945e+22,2.27932e+11,0.267324,6.1324e+31,0.03468,0.000439391,7.84229e-09,1.78626e-56,3.58501e+15,1.61425e+16,1.39175e+12,1.97289e+16
6.35e+06,136371,8.61864e+06,1.46532e+26,6.38962e+22,2.31578e+11,0.267359,6.12829e+31,0.03468,0.000439389,7.8421e-09,1.78617e-56,3.58416e+15,1.61391e+16,1.39138e+12,1.97247e+16
6.45e+06,136351,8.61806e+06,1.53551e+26,6.69402e+22,2.35224e+11,0.267395,6.12412e+31,0.03468,0.000439384,7.84179e-09,1.78601e-56,3.58328e+15,1.61357e+16,1.391e+12,1.97204e+16
6.55e+06,136331,8.61747e+06,1.60789e+26,7.00782e+22,2.3887e+11,0.267432,6.11988e+31,0.03468,0.000439381,7.84162e-09,1.78593e-56,3.5824e+15,1.61322e+16,1.39062e+12,1.9716e+16
6.65e+06,136310,8.61687e+06,1.68252e+26,7.33117e+22,2.42516e+11,0.267469,6.11558e+31,0.03468,0.000439374,7.84114e-09,1.78569e-56,3.5815e+15,1.61286e+16,1.39023e+12,1.97115e+16
6.75e+06,136289,8.61626e+06,1.75941e+26,7.6642e+22,2.46162e+11,0.267506,6.11122e+31,0.03468,0.000439362,7.84044e-09,1.78534e-56,3.58059e+15,1.6125e+16,1.38984e+12,1.9707e+16
6.85e+06,136268,8.61564e+06,1.83859e+26,8.00704e+22,2.49808e+11,0.267544,6.1068e+31,0.03468,0.000439366,7.84066e-09,1.78545e-56,3.57966e+15,1.61214e+16,1.38944e+12,1.97024e+16
6.95e+06,136247,8.61501e+06,1.92012e+26,8.35982e+22,2.53454e+11,0.267583,6.10232e+31,0.03468,0.000439363,7.84045e-09,1.78534e-56,3.57872e+15,1.61177e+16,1.38904e+12,1.96978e+16
7.05e+06,136225,8.61437e+06,2.00401e+26,8.72268e+22,2.57099e+11,0.267622,6.09777e+31,0.03468,0.000439358,7.84011e-09,1.78518e-56,3.57777e+15,1.61139e+16,1.38862e+12,1.96931e+16
7.15e+06,136203,8.61373e+06,2.0903e+26,9.09575e+22,2.60745e+11,0.267662,6.09316e+31,0.03468,0.000439355,7.83992e-09,1.78508e-56,3.5768e+15,1.61101e+16,1.38821e+12,1.96883e+16
7.25e+06,136180,8.61307e+06,2.17902e+26,9.47916e+22,2.64391e+11,0.267703,6.0885e+31,0.03468,0.000439347,7.83939e-09,1.78481e-56,3.57583e+15,1.61062e+16,1.38779e+12,1.96834e+16
7.35e+06,136158,8.61241e+06,2.27021e+26,9.87305e+22,2.68036e+11,0.267744,6.08377e+31,0.03468,0.000439333,7.83861e-09,1.78443e-56,3.57483e+15,1.61023e+16,1.38736e+12,1.96785e+16
7.45e+06,136135,8.61174e+06,2.3639e+26,1.02775e+23,2.71682e+11,0.267785,6.07898e+31,0.03468,0.000439338,7.83886e-09,1.78455e-56,3.57383e+15,1.60983e+16,1.38692e+12,1.96735e+16
7.55e+06,136112,8.61105e+06,2.46012e+26,1.06928e+23,2.75327e+11,0.267828,6.07413e+31,0.03468,0.000439334,7.83862e-09,1.78443e-56,3.57281e+15,1.60943e+16,1.38649e+12,1.96685e+16
7.65e+06,136088,8.61036e+06,2.5589e+26,1.11189e+23,2.78973e+11,0.26787,6.06922e+31,0.03468,0.000439329,7.83825e-09,1.78425e-56,3.57178e+15,1.60902e+16,1.38604e+12,1.96634e+16
7.75e+06,136064,8.60966e+06,2.66029e+26,1.15559e+23,2.82618e+11,0.267914,6.06424e+31,0.03468,0.000439325,7.83804e-09,1.78414e-56,3.57073e+15,1.60861e+16,1.38559e+12,1.96582e+16
7.85e+06,136040,8.60895e+06,2.76431e+26,1.20041e+23,2.86263e+11,0.267958,6.05921e+31,0.03468,0.000439316,7.83745e-09,1.78385e-56,3.56967e+15,1.60819e+16,1.38513e+12,1.96529e+16
7.95e+06,136015,8.60824e+06,2.87099e+26,1.24636e+23,2.89909e+11,0.268002,6.05412e+31,0.03468,0.000439302,7.8366e-09,1.78343e-56,3.5686e+15,1.60776e+16,1.38467e+12,1.96476e+16
8.05e+06,135991,8.60751e+06,2.98038e+26,1.29344e+23,2.93554e+11,0.268047,6.04897e+31,0.03468,0.000439307,7.83687e-09,1.78356e-56,3.56752e+15,1.60734e+16,1.3842e+12,1.96423e+16
8.15e+06,135965,8.60677e+06,3.09249e+26,1.34167e+23,2.97199e+11,0.268093,6.04375e+31,0.03468,0.000439303,7.83661e-09,1.78343e-56,3.56642e+15,1.6069e+16,1.38373e+12,1.96368e+16
8.25e+06,135940,8.60603e+06,3.20736e+26,1.39107e+23,3.00844e+11,0.268139,6.03848e+31,0.03468,0.000439297,7.8362e-09,1.78323e-56,3.56531e+15,1.60646e+16,1.38325e+12,1.96313e+16
8.35e+06,135914,8.60527e+06,3.32504e+26,1.44164e+23,3.04489e+11,0.268185,6.03315e+31,0.03468,0.000439293,7.83598e-09,1.78311e-56,3.56418e+15,1.60602e+16,1.38277e+12,1.96257e+16
8.45e+06,135888,8.60451e+06,3.44554e+26,1.4934e+23,3.08134e+11,0.268233,6.02776e+31,0.03468,0.000439283,7.83533e-09,1.78279e-56,3.56304e+15,1.60557e+16,1.38228e+12,1.96201e+16
8.55e+06,135862,8.60374e+06,3.56891e+26,1.54636e+23,3.11779e+11,0.268281,6.02231e+31,0.03468,0.000439267,7.83441e-09,1.78233e-56,3.56189e+15,1.60511e+16,1.38178e+12,1.96144e+16
8.65e+06,135835,8.60296e+06,3.69517e+26,1.60053e+23,3.15424e+11,0.268329,6.0168e+31,0.03468,0.000439273,7.8347e-09,1.78248e-56,3.56073e+15,1.60465e+16,1.38128e+12,1.96086e+16
8.75e+06,135808,8.60217e+06,3.82436e+26,1.65593e+23,3.19069e+11,0.268378,6.01123e+31,0.03468,0.000439268,7.83442e-09,1.78234e-56,3.55955e+15,1.60419e+16,1.38077e+12,1.96028e+16
8.85e+06,135781,8.60137e+06,3.95651e+26,1.71256e+23,3.22714e+11,0.268428,6.00561e+31,0.03468,0.000439262,7.83398e-09,1.78212e-56,3.55836e+15,1.60371e+16,1.38026e+12,1.95969e+16
8.95e+06,135753,8.60056e+06,4.09165e+26,1.77045e+23,3.26359e+11,0.268478,5.99992e+31,0.03468,0.000439258,7.83373e-09,1.78199e-56,3.55716e+15,1.60324e+16,1.37974e+12,1.95909e+16
9.05e+06,135726,8.59974e+06,4.22982e+26,1.82959e+23,3.30003e+11,0.268528,5.99418e+31,0.03468,0.000439247,7.83303e-09,1.78165e-56,3.55594e+15,1.60276e+16,1.37921e+12,1.95849e+16
9.15e+06,135697,8.59892e+06,4.37104e+26,1.89001e+23,3.33648e+11,0.26858,5.98838e+31,0.03468,0.00043923,7.83203e-09,1.78115e-56,3.55471e+15,1.60227e+16,1.37868e+12,1.95788e+16
9.25e+06,135669,8.59808e+06,4.51536e+26,1.95172e+23,3.37292e+11,0.268632,5.98252e+31,0.03468,0.000439236,7.83235e-09,1.78131e-56,3.55347e+15,1.60178e+16,1.37815e+12,1.95726e+16
9.35e+06,135640,8.59724e+06,4.6628e+26,2.01472e+23,3.40937e+11,0.268684,5.9766e+31,0.03468,0.000439231,7.83205e-09,1.78116e-56,3.55222e+15,1.60128e+16,1.37761e+12,1.95664e+16
9.45e+06,135611,8.59638e+06,4.8134e+26,2.07903e+23,3.44581e+11,0.268737,5.97063e+31,0.03468,0.000439224,7.83157e-09,1.78092e-56,3.55095e+15,1.60078e+16,1.37706e+12,1.95601e+16
9.55e+06,135582,8.59552e+06,4.96718e+26,2.14466e+23,3.48226e+11,0.268791,5.9646e+31,0.03468,0.00043922,7.8313e-09,1.78078e-56,3.54967e+15,1.60027e+16,1.37651e+12,1.95538e+16
9.65e+06,135552,8.59465e+06,5.12418e+26,2.21163e+23,3.5187e+11,0.268845,5.95851e+31,0.03468,0.000439208,7.83055e-09,1.78041e-56,3.54837e+15,1.59976e+16,1.37595e+12,1.95474e+16
9.75e+06,135522,8.59377e+06,5.28444e+26,2.27994e+23,3.55514e+11,0.268899,5.95236e+31,0.03468,0.00043919,7.82947e-09,1.77987e-56,3.54706e+15,1.59924e+16,1.37539e+12,1.95409e+16
9.85e+06,135492,8.59288e+06,5.44798e+26,2.34961e+23,3.59158e+11,0.268955,5.94616e+31,0.03468,0.000439196,7.82982e-09,1.78004e-56,3.54574e+15,1.59872e+16,1.37482e+12,1.95343e+16
9.95e+06,135461,8.59198e+06,5.61484e+26,2.42064e+23,3.62802e+11,0.269011,5.9399e+31,0.03468,0.000439191,7.82949e-09,1.77988e-56,3.54441e+15,1.59819e+16,1.37425e+12,1.95277e+16
1.005e+07,135430,8.59108e+06,5.78505e+26,2.49305e+23,3.66447e+11,0.269067,5.93359e+31,0.03468,0.000439184,7.82898e-09,1.77963e-56,3.54306e+15,1.59766e+16,1.37367e+12,1.9521e+16
1.015e+07,135399,8.59016e+06,5.95864e+26,2.56686e+23,3.70091e+11,0.269124,5.92721e+31,0.03468,0.000439179,7.82869e-09,1.77949e-56,3.5417e+15,1.59712e+16,1.37308e+12,1.95143e+16
1.025e+07,135368,8.58924e+06,6.13564e+26,2.64206e+23,3.73734e+11,0.269182,5.92079e+31,0.03468,0.000439167,7.82789e-09,1.77908e-56,3.54033e+15,1.59658e+16,1.37249e+12,1.95075e+16
1.035e+07,135336,8.5883e+06,6.31609e+26,2.71868e+23,3.77378e+11,0.26924,5.9143e+31,0.03468,0.000439147,7.82673e-09,1.77851e-56,3.53895e+15,1.59603e+16,1.37189e+12,1.95006e+16
1.045e+07,135304,8.58736e+06,6.50002e+26,2.79672e+23,3.81022e+11,0.269299,5.90776e+31,0.03468,0.000439153,7.8271e-09,1.77869e-56,3.53755e+15,1.59548e+16,1.37129e+12,1.94937e+16
1.055e+07,135272,8.58641e+06,6.68745e+26,2.87619e+23,3.84666e+11,0.269358,5.90117e+31,0.03468,0.000439148,7.82675e-09,1.77852e-56,3.53614e+15,1.59492e+16,1.37068e+12,1.94867e+16
1.065e+07,135239,8.58545e+06,6.87843e+26,2.95712e+23,3.88309e+11,0.269418,5.89452e+31,0.03468,0.00043914,7.8262e-09,1.77825e-56,3.53472e+15,1.59436e+16,1.37007e+12,1.94796e+16
1.075e+07,135206,8.58448e+06,7.07298e+26,3.0395e+23,3.91953e+11,0.269478,5.88781e+31,0.03468,0.000439135,7.8259e-09,1.7781e-56,3.53328e+15,1.59379e+16,1.36945e+12,1.94725e+16
1.085e+07,135173,8.5835e+06,7.27114e+26,3.12334e+23,3.95596e+11,0.269539,5.88106e+31,0.03468,0.000439122,7.82504e-09,1.77767e-56,3.53183e+15,1.59321e+16,1.36883e+12,1.94653e+16
1.095e+07,135139,8.58252e+06,7.47293e+26,3.20867e+23,3.9924e+11,0.269601,5.87424e+31,0.03468,0.000439101,7.82381e-09,1.77706e-56,3.53037e+15,1.59263e+16,1.3682e+12,1.94581e+16
