X = 0.734
Y = 0.25
Z = 0.016
mu = 0.601142
Radius,Density,Temp,Mass,Lum,OptD,Kff,KH,Kes,PP,CNO,3a,Deg,Gas,Rad,TotPres
0,0,0,0,0,0,-nan,0,0.03468,0.000324534,4.15491e-09,4.59269e-57,0,0,0,0
1,110000,8.4581e+06,460767,149.536,27023.3,0.245667,4.64709e+31,0.03468,0.000324534,4.15491e-09,4.59269e-57,2.50518e+15,1.27757e+16,1.29057e+12,1.52822e+16
100026,110000,8.4581e+06,4.61129e+20,1.49653e+17,2.70304e+09,0.245667,4.64707e+31,0.03468,0.000324534,4.15491e-09,4.59269e-57,2.50518e+15,1.27757e+16,1.29057e+12,1.52822e+16
200035,110000,8.45808e+06,3.68808e+21,1.19691e+18,5.40562e+09,0.245667,4.64701e+31,0.03468,0.000324534,4.15491e-09,4.59269e-57,2.50517e+15,1.27757e+16,1.29056e+12,1.52821e+16
300073,109999,8.45807e+06,1.24497e+22,4.04034e+18,8.10897e+09,0.245669,4.6469e+31,0.03468,0.000324534,4.15491e-09,4.59269e-57,2.50515e+15,1.27756e+16,1.29055e+12,1.5282e+16
400336,109998,8.45804e+06,2.95632e+22,9.59413e+18,1.08184e+10,0.24567,4.64676e+31,0.03468,0.000324534,4.15491e-09,4.59269e-57,2.50512e+15,1.27754e+16,1.29053e+12,1.52819e+16
500501,109997,8.45801e+06,5.77683e+22,1.87472e+19,1.35252e+10,0.245672,4.64657e+31,0.03468,0.000324534,4.15491e-09,4.59269e-57,2.50508e+15,1.27753e+16,1.29051e+12,1.52817e+16
600546,109996,8.45796e+06,9.97954e+22,3.23855e+19,1.62287e+10,0.245674,4.64634e+31,0.03468,0.000324534,4.15491e-09,4.59269e-57,2.50504e+15,1.27751e+16,1.29049e+12,1.52814e+16
700950,109995,8.45791e+06,1.58683e+23,5.14943e+19,1.8942e+10,0.245677,4.64607e+31,0.03468,0.000324534,4.15491e-09,4.59269e-57,2.50498e+15,1.27749e+16,1.29046e+12,1.52811e+16
801209,109993,8.45786e+06,2.36975e+23,7.68993e+19,2.16513e+10,0.24568,4.64576e+31,0.03468,0.000324534,4.15491e-09,4.59269e-57,2.50492e+15,1.27746e+16,1.29042e+12,1.52808e+16
901559,109991,8.45779e+06,3.37631e+23,1.0956e+20,2.43631e+10,0.245684,4.6454e+31,0.03468,0.000324534,4.15491e-09,4.59269e-57,2.50486e+15,1.27743e+16,1.29038e+12,1.52804e+16
1.00168e+06,109989,8.45772e+06,4.63064e+23,1.50257e+20,2.70686e+10,0.245688,4.64501e+31,0.03468,0.000324534,4.15491e-09,4.59269e-57,2.50478e+15,1.27739e+16,1.29034e+12,1.528e+16
1.10216e+06,109987,8.45764e+06,6.16864e+23,2.00156e+20,2.9784e+10,0.245693,4.64457e+31,0.03468,0.000324534,4.15491e-09,4.59269e-57,2.50469e+15,1.27736e+16,1.29029e+12,1.52795e+16
1.20281e+06,109985,8.45756e+06,8.01743e+23,2.60134e+20,3.25038e+10,0.245698,4.64409e+31,0.03468,0.000324534,4.15491e-09,4.59269e-57,2.5046e+15,1.27731e+16,1.29024e+12,1.5279e+16
1.30288e+06,109982,8.45746e+06,1.01894e+24,3.30593e+20,3.52079e+10,0.245703,4.64357e+31,0.03468,0.000324534,4.15491e-09,4.59269e-57,2.5045e+15,1.27727e+16,1.29018e+12,1.52785e+16
1.40391e+06,109979,8.45736e+06,1.27483e+24,4.13598e+20,3.79382e+10,0.245709,4.643e+31,0.03468,0.000324534,4.15491e-09,4.59269e-57,2.50439e+15,1.27722e+16,1.29012e+12,1.52779e+16
1.5049e+06,109976,8.45725e+06,1.57017e+24,5.09389e+20,4.06671e+10,0.245715,4.64239e+31,0.03468,0.000324534,4.15491e-09,4.59269e-57,2.50427e+15,1.27717e+16,1.29005e+12,1.52772e+16
1.60594e+06,109973,8.45713e+06,1.9081e+24,6.18987e+20,4.33974e+10,0.245722,4.64174e+31,0.03468,0.000324534,4.15491e-09,4.59269e-57,2.50414e+15,1.27711e+16,1.28998e+12,1.52765e+16
1.70609e+06,109969,8.45701e+06,2.28779e+24,7.4212e+20,4.61039e+10,0.245729,4.64105e+31,0.03468,0.000324534,4.15491e-09,4.59269e-57,2.50401e+15,1.27705e+16,1.2899e+12,1.52758e+16
1.80709e+06,109965,8.45688e+06,2.71857e+24,8.81805e+20,4.88332e+10,0.245737,4.64032e+31,0.03468,0.000324534,4.15491e-09,4.59269e-57,2.50387e+15,1.27699e+16,1.28982e+12,1.5275e+16
1.90836e+06,109961,8.45674e+06,3.20164e+24,1.03843e+21,5.15697e+10,0.245745,4.63954e+31,0.03468,0.000324534,4.15491e-09,4.59269e-57,2.50372e+15,1.27692e+16,1.28974e+12,1.52742e+16
2.0093e+06,109957,8.45659e+06,3.7369e+24,1.21196e+21,5.42972e+10,0.245753,4.63872e+31,0.03468,0.000324534,4.15491e-09,4.59269e-57,2.50356e+15,1.27685e+16,1.28965e+12,1.52733e+16
2.11083e+06,109953,8.45643e+06,4.33243e+24,1.40501e+21,5.7041e+10,0.245762,4.63785e+31,0.03468,0.000324534,4.15491e-09,4.59269e-57,2.50339e+15,1.27677e+16,1.28955e+12,1.52724e+16
2.21089e+06,109948,8.45627e+06,4.97806e+24,1.61427e+21,5.97447e+10,0.245772,4.63696e+31,0.03468,0.000324534,4.15491e-09,4.59269e-57,2.50321e+15,1.2767e+16,1.28945e+12,1.52715e+16
2.31223e+06,109943,8.4561e+06,5.69433e+24,1.8464e+21,6.24833e+10,0.245781,4.63601e+31,0.03468,0.000324534,4.15491e-09,4.59269e-57,2.50303e+15,1.27661e+16,1.28935e+12,1.52704e+16
2.41281e+06,109938,8.45592e+06,6.47002e+24,2.09776e+21,6.52011e+10,0.245792,4.63502e+31,0.03468,0.000324534,4.15491e-09,4.59269e-57,2.50284e+15,1.27653e+16,1.28924e+12,1.52694e+16
2.51401e+06,109933,8.45573e+06,7.31851e+24,2.37267e+21,6.79356e+10,0.245802,4.63399e+31,0.03468,0.000324534,4.15491e-09,4.59269e-57,2.50264e+15,1.27644e+16,1.28913e+12,1.52683e+16
2.61554e+06,109927,8.45554e+06,8.24126e+24,2.6716e+21,7.06791e+10,0.245813,4.63291e+31,0.03468,0.000324534,4.15491e-09,4.59269e-57,2.50243e+15,1.27634e+16,1.28901e+12,1.52672e+16
2.71711e+06,109922,8.45534e+06,9.23887e+24,2.99473e+21,7.34238e+10,0.245825,4.63179e+31,0.03468,0.000324534,4.15491e-09,4.59269e-57,2.50221e+15,1.27625e+16,1.28888e+12,1.5266e+16
2.81842e+06,109916,8.45513e+06,1.03109e+25,3.34192e+21,7.61612e+10,0.245837,4.63063e+31,0.03468,0.000324534,4.15491e-09,4.59269e-57,2.50198e+15,1.27615e+16,1.28876e+12,1.52647e+16
2.91914e+06,109910,8.45491e+06,1.14559e+25,3.71269e+21,7.88827e+10,0.24585,4.62944e+31,0.03468,0.000324534,4.15491e-09,4.59269e-57,2.50175e+15,1.27604e+16,1.28862e+12,1.52635e+16
3.0212e+06,109903,8.45468e+06,1.26996e+25,4.11533e+21,8.16406e+10,0.245863,4.62819e+31,0.03468,0.000324534,4.15491e-09,4.59269e-57,2.50151e+15,1.27593e+16,1.28849e+12,1.52621e+16
3.12216e+06,109897,8.45445e+06,1.40153e+25,4.54124e+21,8.43688e+10,0.245876,4.6269e+31,0.03468,0.000324534,4.15491e-09,4.59269e-57,2.50126e+15,1.27582e+16,1.28834e+12,1.52608e+16
3.2241e+06,109890,8.45421e+06,1.54328e+25,4.99998e+21,8.71231e+10,0.24589,4.62557e+31,0.03468,0.000324534,4.15491e-09,4.59269e-57,2.501e+15,1.27571e+16,1.2882e+12,1.52593e+16
3.32439e+06,109883,8.45396e+06,1.69176e+25,5.48045e+21,8.9833e+10,0.245904,4.62421e+31,0.03468,0.000324534,4.15491e-09,4.59269e-57,2.50073e+15,1.27559e+16,1.28805e+12,1.52579e+16
3.42524e+06,109876,8.45371e+06,1.85038e+25,5.99362e+21,9.25581e+10,0.245919,4.62281e+31,0.03468,0.000324534,4.15491e-09,4.59269e-57,2.50046e+15,1.27547e+16,1.28789e+12,1.52564e+16
3.52652e+06,109868,8.45344e+06,2.01934e+25,6.54015e+21,9.52948e+10,0.245934,4.62135e+31,0.03468,0.000324534,4.15491e-09,4.59269e-57,2.50018e+15,1.27534e+16,1.28773e+12,1.52549e+16
3.62809e+06,109860,8.45317e+06,2.19879e+25,7.12051e+21,9.80391e+10,0.245949,4.61985e+31,0.03468,0.000324534,4.15491e-09,4.59269e-57,2.49989e+15,1.27521e+16,1.28756e+12,1.52533e+16
3.7298e+06,109852,8.45289e+06,2.38884e+25,7.735e+21,1.00787e+11,0.245965,4.61831e+31,0.03468,0.000324534,4.15491e-09,4.59269e-57,2.49958e+15,1.27507e+16,1.28739e+12,1.52516e+16
3.83149e+06,109844,8.45261e+06,2.5895e+25,8.38369e+21,1.03535e+11,0.245982,4.61672e+31,0.03468,0.000324534,4.15491e-09,4.59269e-57,2.49928e+15,1.27494e+16,1.28722e+12,1.52499e+16
3.93302e+06,109836,8.45231e+06,2.80074e+25,9.06641e+21,1.06278e+11,0.245999,4.6151e+31,0.03468,0.000324534,4.15491e-09,4.59269e-57,2.49896e+15,1.2748e+16,1.28704e+12,1.52482e+16
4.03423e+06,109827,8.45201e+06,3.02242e+25,9.78275e+21,1.09013e+11,0.246016,4.61344e+31,0.03468,0.000324534,4.15491e-09,4.59269e-57,2.49863e+15,1.27465e+16,1.28686e+12,1.52464e+16
4.13496e+06,109819,8.4517e+06,3.25436e+25,1.0532e+22,1.11735e+11,0.246034,4.61174e+31,0.03468,0.000324534,4.15491e-09,4.59269e-57,2.4983e+15,1.2745e+16,1.28667e+12,1.52446e+16
4.23504e+06,109810,8.45139e+06,3.49625e+25,1.13133e+22,1.14439e+11,0.246052,4.61002e+31,0.03468,0.000324534,4.15491e-09,4.59269e-57,2.49797e+15,1.27435e+16,1.28648e+12,1.52428e+16
4.33754e+06,109800,8.45106e+06,3.75613e+25,1.21525e+22,1.17208e+11,0.246071,4.60821e+31,0.03468,0.000324534,4.15491e-09,4.59269e-57,2.49761e+15,1.2742e+16,1.28628e+12,1.52409e+16
4.43921e+06,109791,8.45073e+06,4.02628e+25,1.30246e+22,1.19955e+11,0.24609,4.60637e+31,0.03468,0.000324534,4.15491e-09,4.59269e-57,2.49726e+15,1.27404e+16,1.28607e+12,1.52389e+16
4.53988e+06,109781,8.45039e+06,4.30621e+25,1.39281e+22,1.22675e+11,0.246109,4.60452e+31,0.03468,0.000324534,4.15491e-09,4.59269e-57,2.49689e+15,1.27387e+16,1.28587e+12,1.52369e+16
4.64283e+06,109771,8.45003e+06,4.6056e+25,1.48942e+22,1.25456e+11,0.24613,4.60257e+31,0.03468,0.000324534,4.15491e-09,4.59269e-57,2.49651e+15,1.2737e+16,1.28565e+12,1.52348e+16
4.74457e+06,109761,8.44968e+06,4.91479e+25,1.58916e+22,1.28205e+11,0.24615,4.60061e+31,0.03468,0.000324534,4.15491e-09,4.59269e-57,2.49613e+15,1.27353e+16,1.28544e+12,1.52327e+16
4.84492e+06,109751,8.44932e+06,5.23299e+25,1.69178e+22,1.30916e+11,0.246171,4.59863e+31,0.03468,0.000324534,4.15491e-09,4.59269e-57,2.49574e+15,1.27336e+16,1.28522e+12,1.52306e+16
4.94739e+06,109741,8.44894e+06,5.57179e+25,1.80101e+22,1.33685e+11,0.246192,4.59657e+31,0.03468,0.000324534,4.15491e-09,4.59269e-57,2.49534e+15,1.27318e+16,1.28499e+12,1.52284e+16
5.04826e+06,109730,8.44856e+06,5.91925e+25,1.91301e+22,1.3641e+11,0.246214,4.5945e+31,0.03468,0.000324534,4.15491e-09,4.59269e-57,2.49494e+15,1.273e+16,1.28476e+12,1.52262e+16
5.1512e+06,109719,8.44817e+06,6.28838e+25,2.03196e+22,1.39191e+11,0.246237,4.59235e+31,0.03468,0.000324534,4.15491e-09,4.59269e-57,2.49452e+15,1.27281e+16,1.28452e+12,1.52239e+16
5.25231e+06,109708,8.44778e+06,6.66558e+25,2.15347e+22,1.41923e+11,0.246259,4.5902e+31,0.03468,0.000324534,4.15491e-09,4.59269e-57,2.49409e+15,1.27262e+16,1.28428e+12,1.52216e+16
5.3554e+06,109696,8.44737e+06,7.0654e+25,2.28223e+22,1.44708e+11,0.246283,4.58795e+31,0.03468,0.000324534,4.15491e-09,4.59269e-57,2.49366e+15,1.27243e+16,1.28403e+12,1.52192e+16
5.45645e+06,109684,8.44696e+06,7.47245e+25,2.41328e+22,1.47438e+11,0.246306,4.58572e+31,0.03468,0.000324534,4.15491e-09,4.59269e-57,2.49322e+15,1.27223e+16,1.28378e+12,1.52168e+16
5.5594e+06,109672,8.44654e+06,7.90294e+25,2.55184e+22,1.50219e+11,0.246331,4.5834e+31,0.03468,0.000324534,4.15491e-09,4.59269e-57,2.49276e+15,1.27203e+16,1.28353e+12,1.52143e+16
5.66007e+06,109661,8.44612e+06,8.33953e+25,2.69231e+22,1.52939e+11,0.246355,4.58108e+31,0.03468,0.000324534,4.15491e-09,4.59269e-57,2.49231e+15,1.27183e+16,1.28327e+12,1.52119e+16
5.76257e+06,109648,8.44568e+06,8.80024e+25,2.8405e+22,1.55708e+11,0.24638,4.57869e+31,0.03468,0.000324534,4.15491e-09,4.59269e-57,2.49184e+15,1.27162e+16,1.283e+12,1.52093e+16
5.86692e+06,109635,8.44522e+06,9.2864e+25,2.99683e+22,1.58527e+11,0.246406,4.57621e+31,0.03468,0.000324534,4.15491e-09,4.59269e-57,2.49135e+15,1.2714e+16,1.28273e+12,1.52066e+16
5.96871e+06,109623,8.44477e+06,9.77749e+25,3.15468e+22,1.61277e+11,0.246432,4.57375e+31,0.03468,0.000324534,4.15491e-09,4.59269e-57,2.49087e+15,1.27118e+16,1.28246e+12,1.5204e+16
6.07227e+06,109609,8.44431e+06,1.02946e+26,3.32083e+22,1.64074e+11,0.246459,4.5712e+31,0.03468,0.000324534,4.15491e-09,4.59269e-57,2.49037e+15,1.27096e+16,1.28217e+12,1.52013e+16
6.17301e+06,109596,8.44385e+06,1.08147e+26,3.48792e+22,1.66796e+11,0.246486,4.56869e+31,0.03468,0.000324534,4.15491e-09,4.59269e-57,2.48988e+15,1.27074e+16,1.28189e+12,1.51986e+16
6.27543e+06,109583,8.44337e+06,1.13611e+26,3.66338e+22,1.69563e+11,0.246513,4.56609e+31,0.03468,0.000324534,4.15491e-09,4.59269e-57,2.48937e+15,1.27051e+16,1.2816e+12,1.51958e+16
6.37955e+06,109569,8.44288e+06,1.19352e+26,3.84765e+22,1.72375e+11,0.246541,4.5634e+31,0.03468,0.000324534,4.15491e-09,4.59269e-57,2.48884e+15,1.27028e+16,1.2813e+12,1.51929e+16
6.48055e+06,109555,8.44239e+06,1.25101e+26,4.03215e+22,1.75104e+11,0.246569,4.56076e+31,0.03468,0.000324534,4.15491e-09,4.59269e-57,2.48832e+15,1.27004e+16,1.28101e+12,1.51901e+16
6.58316e+06,109541,8.44189e+06,1.31128e+26,4.22548e+22,1.77875e+11,0.246598,4.55803e+31,0.03468,0.000324534,4.15491e-09,4.59269e-57,2.48779e+15,1.26981e+16,1.28071e+12,1.51871e+16
6.6874e+06,109526,8.44138e+06,1.37445e+26,4.42804e+22,1.80691e+11,0.246628,4.55522e+31,0.03468,0.000324534,4.15491e-09,4.59269e-57,2.48723e+15,1.26956e+16,1.28039e+12,1.51841e+16
6.78822e+06,109512,8.44087e+06,1.43744e+26,4.62994e+22,1.83414e+11,0.246657,4.55245e+31,0.03468,0.000324534,4.15491e-09,4.59269e-57,2.48669e+15,1.26932e+16,1.28009e+12,1.51811e+16
6.89056e+06,109497,8.44035e+06,1.50332e+26,4.84102e+22,1.86179e+11,0.246688,4.54961e+31,0.03468,0.000324534,4.15491e-09,4.59269e-57,2.48613e+15,1.26907e+16,1.27977e+12,1.51781e+16
6.99445e+06,109482,8.43981e+06,1.57221e+26,5.06168e+22,1.88985e+11,0.246719,4.54668e+31,0.03468,0.000324534,4.15491e-09,4.59269e-57,2.48555e+15,1.26881e+16,1.27944e+12,1.51749e+16
7.0946e+06,109467,8.43928e+06,1.64059e+26,5.28059e+22,1.9169e+11,0.246749,4.54382e+31,0.03468,0.000324534,4.15491e-09,4.59269e-57,2.48499e+15,1.26856e+16,1.27912e+12,1.51718e+16
7.19619e+06,109452,8.43874e+06,1.71194e+26,5.50893e+22,1.94434e+11,0.24678,4.54087e+31,0.03468,0.000324534,4.15491e-09,4.59269e-57,2.48441e+15,1.2683e+16,1.27879e+12,1.51687e+16
7.29924e+06,109436,8.43818e+06,1.78639e+26,5.7471e+22,1.97218e+11,0.246812,4.53785e+31,0.03468,0.000324534,4.15491e-09,4.59269e-57,2.48381e+15,1.26803e+16,1.27846e+12,1.51654e+16
7.40377e+06,109420,8.43761e+06,1.86407e+26,5.99552e+22,2.00041e+11,0.246846,4.53474e+31,0.03468,0.000324534,4.15491e-09,4.59269e-57,2.4832e+15,1.26776e+16,1.27811e+12,1.5162e+16
7.50419e+06,109404,8.43705e+06,1.94079e+26,6.24073e+22,2.02753e+11,0.246878,4.53171e+31,0.03468,0.000324534,4.15491e-09,4.59269e-57,2.4826e+15,1.26749e+16,1.27777e+12,1.51588e+16
7.60598e+06,109388,8.43647e+06,2.02066e+26,6.49592e+22,2.05503e+11,0.246911,4.5286e+31,0.03468,0.000324534,4.15491e-09,4.59269e-57,2.48199e+15,1.26722e+16,1.27742e+12,1.51554e+16
7.70915e+06,109371,8.43589e+06,2.10381e+26,6.7615e+22,2.08289e+11,0.246945,4.5254e+31,0.03468,0.000324534,4.15491e-09,4.59269e-57,2.48136e+15,1.26693e+16,1.27706e+12,1.5152e+16
7.81373e+06,109354,8.43528e+06,2.19039e+26,7.03789e+22,2.11114e+11,0.24698,4.52213e+31,0.03468,0.000324534,4.15491e-09,4.59269e-57,2.48071e+15,1.26664e+16,1.2767e+12,1.51484e+16
7.9138e+06,109337,8.43469e+06,2.27543e+26,7.30925e+22,2.13817e+11,0.247014,4.51895e+31,0.03468,0.000324534,4.15491e-09,4.59269e-57,2.48008e+15,1.26636e+16,1.27634e+12,1.5145e+16
8.01517e+06,109320,8.43409e+06,2.36377e+26,7.59101e+22,2.16554e+11,0.247049,4.51569e+31,0.03468,0.000324534,4.15491e-09,4.59269e-57,2.47944e+15,1.26608e+16,1.27598e+12,1.51415e+16
8.11784e+06,109303,8.43347e+06,2.45554e+26,7.88359e+22,2.19327e+11,0.247085,4.51236e+31,0.03468,0.000324534,4.15491e-09,4.59269e-57,2.47878e+15,1.26578e+16,1.2756e+12,1.51379e+16
8.22183e+06,109285,8.43284e+06,2.55087e+26,8.18738e+22,2.22136e+11,0.247121,4.50894e+31,0.03468,0.000324534,4.15491e-09,4.59269e-57,2.4781e+15,1.26548e+16,1.27522e+12,1.51342e+16
8.32716e+06,109267,8.43219e+06,2.6499e+26,8.50282e+22,2.2498e+11,0.247159,4.50543e+31,0.03468,0.000324534,4.15491e-09,4.59269e-57,2.47741e+15,1.26517e+16,1.27483e+12,1.51304e+16
8.42754e+06,109249,8.43156e+06,2.74662e+26,8.81073e+22,2.27691e+11,0.247195,4.50205e+31,0.03468,0.000324534,4.15491e-09,4.59269e-57,2.47674e+15,1.26487e+16,1.27445e+12,1.51267e+16
8.52913e+06,109231,8.43092e+06,2.84687e+26,9.12974e+22,2.30434e+11,0.247232,4.49859e+31,0.03468,0.000324534,4.15491e-09,4.59269e-57,2.47605e+15,1.26456e+16,1.27406e+12,1.5123e+16
8.63195e+06,109212,8.43026e+06,2.95077e+26,9.46023e+22,2.33211e+11,0.24727,4.49505e+31,0.03468,0.000324534,4.15491e-09,4.59269e-57,2.47535e+15,1.26425e+16,1.27366e+12,1.51191e+16
8.73602e+06,109193,8.42959e+06,3.05847e+26,9.80262e+22,2.36022e+11,0.247309,4.49142e+31,0.03468,0.000324534,4.15491e-09,4.59269e-57,2.47463e+15,1.26393e+16,1.27325e+12,1.51152e+16
8.84135e+06,109174,8.4289e+06,3.1701e+26,1.01573e+23,2.38866e+11,0.247349,4.48771e+31,0.03468,0.000324534,4.15491e-09,4.59269e-57,2.4739e+15,1.2636e+16,1.27284e+12,1.51112e+16
8.94796e+06,109154,8.42819e+06,3.28581e+26,1.05248e+23,2.41745e+11,0.24739,4.48392e+31,0.03468,0.000324534,4.15491e-09,4.59269e-57,2.47314e+15,1.26326e+16,1.27241e+12,1.5107e+16
9.04908e+06,109135,8.42751e+06,3.39811e+26,1.08813e+23,2.44475e+11,0.24743,4.48028e+31,0.03468,0.000324534,4.15491e-09,4.59269e-57,2.47242e+15,1.26294e+16,1.272e+12,1.51031e+16
9.15136e+06,109115,8.42682e+06,3.51426e+26,1.12498e+23,2.47237e+11,0.24747,4.47656e+31,0.03468,0.000324534,4.15491e-09,4.59269e-57,2.47168e+15,1.26261e+16,1.27158e+12,1.5099e+16
9.25479e+06,109095,8.42611e+06,3.63437e+26,1.16307e+23,2.5003e+11,0.247511,4.47276e+31,0.03468,0.000324534,4.15491e-09,4.59269e-57,2.47092e+15,1.26227e+16,1.27115e+12,1.50949e+16
9.3594e+06,109074,8.42538e+06,3.75859e+26,1.20244e+23,2.52855e+11,0.247553,4.46887e+31,0.03468,0.000324534,4.15491e-09,4.59269e-57,2.47015e+15,1.26192e+16,1.27072e+12,1.50907e+16
9.4652e+06,109053,8.42464e+06,3.88705e+26,1.24313e+23,2.55712e+11,0.247596,4.4649e+31,0.03468,0.000324534,4.15491e-09,4.59269e-57,2.46936e+15,1.26157e+16,1.27027e+12,1.50863e+16
9.57221e+06,109032,8.42388e+06,4.0199e+26,1.28519e+23,2.58601e+11,0.24764,4.46085e+31,0.03468,0.000324534,4.15491e-09,4.59269e-57,2.46855e+15,1.26121e+16,1.26981e+12,1.50819e+16
9.67318e+06,109012,8.42316e+06,4.148e+26,1.32572e+23,2.61327e+11,0.247682,4.45698e+31,0.03468,0.000324534,4.15491e-09,4.59269e-57,2.46778e+15,1.26086e+16,1.26937e+12,1.50777e+16
9.77523e+06,108991,8.42242e+06,4.28017e+26,1.36752e+23,2.64082e+11,0.247725,4.45303e+31,0.03468,0.000324534,4.15491e-09,4.59269e-57,2.46699e+15,1.26051e+16,1.26893e+12,1.50734e+16
9.87835e+06,108969,8.42166e+06,4.41655e+26,1.41063e+23,2.66867e+11,0.247769,4.44901e+31,0.03468,0.000324534,4.15491e-09,4.59269e-57,2.46619e+15,1.26015e+16,1.26847e+12,1.5069e+16
9.98258e+06,108948,8.42089e+06,4.55728e+26,1.45509e+23,2.69681e+11,0.247814,4.4449e+31,0.03468,0.000324534,4.15491e-09,4.59269e-57,2.46537e+15,1.25979e+16,1.26801e+12,1.50645e+16
1.00879e+07,108926,8.42011e+06,4.7025e+26,1.50094e+23,2.72525e+11,0.247859,4.44071e+31,0.03468,0.000324534,4.15491e-09,4.59269e-57,2.46453e+15,1.25941e+16,1.26754e+12,1.50599e+16
1.01944e+07,108903,8.4193e+06,4.85234e+26,1.54822e+23,2.75399e+11,0.247906,4.43644e+31,0.03468,0.000324534,4.15491e-09,4.59269e-57,2.46368e+15,1.25903e+16,1.26705e+12,1.50552e+16
1.0302e+07,108880,8.41848e+06,5.00696e+26,1.59697e+23,2.78303e+11,0.247954,4.43207e+31,0.03468,0.000324534,4.15491e-09,4.59269e-57,2.4628e+15,1.25864e+16,1.26656e+12,1.50505e+16
1.04029e+07,108858,8.4177e+06,5.15494e+26,1.64361e+23,2.81028e+11,0.247999,4.42794e+31,0.03468,0.000324534,4.15491e-09,4.59269e-57,2.46198e+15,1.25827e+16,1.26609e+12,1.50459e+16
1.05048e+07,108835,8.41691e+06,5.30729e+26,1.6916e+23,2.83779e+11,0.248045,4.42374e+31,0.03468,0.000324534,4.15491e-09,4.59269e-57,2.46113e+15,1.25789e+16,1.26561e+12,1.50413e+16
1.06077e+07,108813,8.4161e+06,5.46415e+26,1.74098e+23,2.86558e+11,0.248092,4.41945e+31,0.03468,0.000324534,4.15491e-09,4.59269e-57,2.46028e+15,1.25751e+16,1.26513e+12,1.50366e+16
1.07117e+07,108789,8.41528e+06,5.62564e+26,1.79179e+23,2.89364e+11,0.24814,4.41508e+31,0.03468,0.000324534,4.15491e-09,4.59269e-57,2.4594e+15,1.25712e+16,1.26463e+12,1.50318e+16
1.08167e+07,108766,8.41444e+06,5.79191e+26,1.84406e+23,2.92198e+11,0.248189,4.41063e+31,0.03468,0.000324534,4.15491e-09,4.59269e-57,2.45851e+15,1.25672e+16,1.26413e+12,1.50269e+16
1.09227e+07,108742,8.41358e+06,5.96309e+26,1.89785e+23,2.9506e+11,0.248239,4.4061e+31,0.03468,0.000324534,4.15491e-09,4.59269e-57,2.4576e+15,1.25631e+16,1.26361e+12,1.5022e+16
1.10297e+07,108717,8.4127e+06,6.13933e+26,1.9532e+23,2.9795e+11,0.24829,4.40149e+31,0.03468,0.000324534,4.15491e-09,4.59269e-57,2.45667e+15,1.25589e+16,1.26309e+12,1.50169e+16
1.11379e+07,108692,8.41181e+06,6.32078e+26,2.01014e+23,3.00868e+11,0.248342,4.39678e+31,0.03468,0.000324534,4.15491e-09,4.59269e-57,2.45572e+15,1.25547e+16,1.26255e+12,1.50117e+16
1.12386e+07,108668,8.41098e+06,6.49302e+26,2.06416e+23,3.03588e+11,0.248391,4.39236e+31,0.03468,0.000324534,4.15491e-09,4.59269e-57,2.45483e+15,1.25507e+16,1.26205e+12,1.50068e+16
