X = 0.734
Y = 0.25
Z = 0.016
mu = 0.601142
Radius,Density,Temp,Mass,Lum,OptD,Kff,KH,Kes,PP,CNO,3a,Deg,Gas,Rad,TotPres
0,0,0,0,0,0,-nan,0,0.03468,0.000758138,9.97398e-08,4.89728e-54,0,0,0,0
1,143000,9.79285e+06,598997,454.182,25276.4,0.176758,1.98098e+32,0.03468,0.000758138,9.97398e-08,4.89728e-54,3.87923e+15,1.92294e+16,2.31914e+12,2.31109e+16
30001,143000,9.79285e+06,1.61745e+19,1.22641e+16,7.58317e+08,0.176758,1.98098e+32,0.03468,0.000758138,9.97398e-08,4.89728e-54,3.87922e+15,1.92294e+16,2.31914e+12,2.31109e+16
70001,143000,9.79285e+06,2.05465e+20,1.55791e+17,1.76937e+09,0.176758,1.98098e+32,0.03468,0.000758138,9.97398e-08,4.89727e-54,3.87922e+15,1.92294e+16,2.31914e+12,2.31109e+16
150001,143000,9.79284e+06,2.02165e+21,1.53289e+18,3.79148e+09,0.176758,1.98096e+32,0.03468,0.000758138,9.97398e-08,4.89728e-54,3.87921e+15,1.92293e+16,2.31913e+12,2.31109e+16
250001,142999,9.79282e+06,9.3594e+21,7.09657e+18,6.31912e+09,0.176759,1.98092e+32,0.03468,0.000758138,9.97398e-08,4.89727e-54,3.87918e+15,1.92292e+16,2.31911e+12,2.31107e+16
350001,142998,9.79279e+06,2.5682e+22,1.94726e+19,8.84676e+09,0.17676,1.98086e+32,0.03468,0.000758138,9.97397e-08,4.89727e-54,3.87914e+15,1.9229e+16,2.31908e+12,2.31105e+16
450001,142997,9.79275e+06,5.45832e+22,4.13855e+19,1.13744e+10,0.176761,1.98078e+32,0.03468,0.000758138,9.97397e-08,4.89727e-54,3.87908e+15,1.92288e+16,2.31905e+12,2.31102e+16
550001,142995,9.7927e+06,9.96567e+22,7.55593e+19,1.3902e+10,0.176763,1.98068e+32,0.03468,0.000758138,9.97397e-08,4.89727e-54,3.87901e+15,1.92285e+16,2.319e+12,2.31098e+16
650001,142993,9.79265e+06,1.64496e+23,1.24717e+20,1.64297e+10,0.176765,1.98056e+32,0.03468,0.000758138,9.97397e-08,4.89727e-54,3.87893e+15,1.92281e+16,2.31894e+12,2.31094e+16
750001,142991,9.79258e+06,2.52694e+23,1.91582e+20,1.89573e+10,0.176768,1.98042e+32,0.03468,0.000758138,9.97397e-08,4.89727e-54,3.87883e+15,1.92277e+16,2.31888e+12,2.31088e+16
850001,142989,9.7925e+06,3.67843e+23,2.78876e+20,2.14849e+10,0.17677,1.98027e+32,0.03468,0.000758138,9.97397e-08,4.89727e-54,3.87872e+15,1.92272e+16,2.31881e+12,2.31082e+16
950001,142986,9.79241e+06,5.13537e+23,3.89318e+20,2.40125e+10,0.176774,1.98009e+32,0.03468,0.000758138,9.97397e-08,4.89727e-54,3.87859e+15,1.92267e+16,2.31872e+12,2.31076e+16
1.05e+06,142983,9.79232e+06,6.93366e+23,5.2563e+20,2.65401e+10,0.176777,1.97989e+32,0.03468,0.000758138,9.97396e-08,4.89726e-54,3.87845e+15,1.9226e+16,2.31863e+12,2.31068e+16
1.15e+06,142979,9.79221e+06,9.10924e+23,6.90529e+20,2.90677e+10,0.176781,1.97967e+32,0.03468,0.000758138,9.97396e-08,4.89726e-54,3.8783e+15,1.92254e+16,2.31853e+12,2.3106e+16
1.25e+06,142976,9.79209e+06,1.1698e+24,8.86732e+20,3.15953e+10,0.176785,1.97944e+32,0.03468,0.000758138,9.97394e-08,4.89724e-54,3.87813e+15,1.92247e+16,2.31842e+12,2.31051e+16
1.35e+06,142972,9.79197e+06,1.47359e+24,1.11696e+21,3.41229e+10,0.176789,1.97918e+32,0.03468,0.000758137,9.97393e-08,4.89723e-54,3.87795e+15,1.92239e+16,2.3183e+12,2.31041e+16
1.45e+06,142967,9.79183e+06,1.82587e+24,1.38391e+21,3.66505e+10,0.176794,1.9789e+32,0.03468,0.000758137,9.97393e-08,4.89723e-54,3.87775e+15,1.9223e+16,2.31817e+12,2.31031e+16
1.55e+06,142963,9.79169e+06,2.23025e+24,1.69031e+21,3.91781e+10,0.176799,1.97861e+32,0.03468,0.000758137,9.97392e-08,4.89722e-54,3.87754e+15,1.92221e+16,2.31804e+12,2.3102e+16
1.65e+06,142958,9.79153e+06,2.6903e+24,2.03887e+21,4.17057e+10,0.176805,1.97829e+32,0.03468,0.000758137,9.9739e-08,4.89719e-54,3.87732e+15,1.92211e+16,2.31789e+12,2.31008e+16
1.75e+06,142953,9.79137e+06,3.20962e+24,2.43229e+21,4.42332e+10,0.176811,1.97795e+32,0.03468,0.000758136,9.97388e-08,4.89718e-54,3.87708e+15,1.92201e+16,2.31773e+12,2.30995e+16
1.85e+06,142947,9.79119e+06,3.79179e+24,2.87327e+21,4.67608e+10,0.176817,1.9776e+32,0.03468,0.000758135,9.97381e-08,4.8971e-54,3.87683e+15,1.9219e+16,2.31757e+12,2.30982e+16
1.95e+06,142941,9.79101e+06,4.4404e+24,3.36453e+21,4.92883e+10,0.176824,1.97722e+32,0.03468,0.000758134,9.97376e-08,4.89705e-54,3.87657e+15,1.92179e+16,2.31739e+12,2.30968e+16
2.05e+06,142935,9.79082e+06,5.15904e+24,3.90876e+21,5.18159e+10,0.17683,1.97683e+32,0.03468,0.000758134,9.97377e-08,4.89705e-54,3.87629e+15,1.92167e+16,2.31721e+12,2.30953e+16
2.15e+06,142929,9.79061e+06,5.95128e+24,4.50866e+21,5.43434e+10,0.176838,1.97641e+32,0.03468,0.000758133,9.97373e-08,4.89701e-54,3.876e+15,1.92154e+16,2.31702e+12,2.30937e+16
2.25e+06,142922,9.7904e+06,6.82072e+24,5.16693e+21,5.68709e+10,0.176845,1.97598e+32,0.03468,0.000758132,9.97367e-08,4.89694e-54,3.87569e+15,1.92141e+16,2.31682e+12,2.30921e+16
2.35e+06,142915,9.79018e+06,7.77094e+24,5.88625e+21,5.93984e+10,0.176853,1.97553e+32,0.03468,0.000758131,9.97363e-08,4.8969e-54,3.87537e+15,1.92127e+16,2.31661e+12,2.30904e+16
2.45e+06,142907,9.78994e+06,8.80551e+24,6.66932e+21,6.19259e+10,0.176862,1.97505e+32,0.03468,0.000758128,9.97348e-08,4.89675e-54,3.87504e+15,1.92112e+16,2.31639e+12,2.30886e+16
2.55e+06,142900,9.7897e+06,9.92802e+24,7.51883e+21,6.44534e+10,0.17687,1.97456e+32,0.03468,0.000758124,9.97333e-08,4.89658e-54,3.87469e+15,1.92097e+16,2.31616e+12,2.30867e+16
2.65e+06,142892,9.78945e+06,1.11421e+25,8.43745e+21,6.69808e+10,0.176879,1.97405e+32,0.03468,0.000758125,9.97336e-08,4.89662e-54,3.87433e+15,1.92081e+16,2.31592e+12,2.30848e+16
2.75e+06,142883,9.78919e+06,1.24512e+25,9.42787e+21,6.95083e+10,0.176888,1.97352e+32,0.03468,0.000758124,9.97329e-08,4.89654e-54,3.87395e+15,1.92065e+16,2.31567e+12,2.30828e+16
2.85e+06,142875,9.78892e+06,1.3859e+25,1.04928e+22,7.20357e+10,0.176898,1.97297e+32,0.03468,0.000758122,9.97319e-08,4.89643e-54,3.87356e+15,1.92048e+16,2.31541e+12,2.30807e+16
2.95e+06,142866,9.78864e+06,1.5369e+25,1.16348e+22,7.45632e+10,0.176908,1.97239e+32,0.03468,0.00075812,9.97312e-08,4.89636e-54,3.87316e+15,1.92031e+16,2.31515e+12,2.30785e+16
3.05e+06,142856,9.78835e+06,1.69849e+25,1.28566e+22,7.70906e+10,0.176919,1.9718e+32,0.03468,0.000758116,9.97292e-08,4.89614e-54,3.87274e+15,1.92013e+16,2.31487e+12,2.30763e+16
3.15e+06,142847,9.78805e+06,1.87102e+25,1.4161e+22,7.9618e+10,0.176929,1.97119e+32,0.03468,0.00075811,9.97266e-08,4.89586e-54,3.87231e+15,1.91994e+16,2.31459e+12,2.3074e+16
3.25e+06,142837,9.78774e+06,2.05484e+25,1.55504e+22,8.21453e+10,0.17694,1.97056e+32,0.03468,0.000758112,9.97274e-08,4.89594e-54,3.87186e+15,1.91975e+16,2.3143e+12,2.30716e+16
3.35e+06,142827,9.78742e+06,2.25032e+25,1.70277e+22,8.46727e+10,0.176952,1.96992e+32,0.03468,0.00075811,9.97264e-08,4.89584e-54,3.8714e+15,1.91955e+16,2.31399e+12,2.30692e+16
3.45e+06,142816,9.78709e+06,2.45781e+25,1.85954e+22,8.72e+10,0.176963,1.96925e+32,0.03468,0.000758107,9.97249e-08,4.89568e-54,3.87093e+15,1.91934e+16,2.31368e+12,2.30667e+16
3.55e+06,142806,9.78675e+06,2.67766e+25,2.02562e+22,8.97274e+10,0.176976,1.96856e+32,0.03468,0.000758105,9.9724e-08,4.89558e-54,3.87044e+15,1.91913e+16,2.31336e+12,2.30641e+16
3.65e+06,142795,9.7864e+06,2.91024e+25,2.20127e+22,9.22547e+10,0.176988,1.96785e+32,0.03468,0.000758099,9.97214e-08,4.8953e-54,3.86994e+15,1.91891e+16,2.31303e+12,2.30614e+16
3.75e+06,142783,9.78604e+06,3.1559e+25,2.38676e+22,9.4782e+10,0.177001,1.96713e+32,0.03468,0.000758091,9.97178e-08,4.89491e-54,3.86943e+15,1.91869e+16,2.3127e+12,2.30586e+16
3.85e+06,142772,9.78567e+06,3.415e+25,2.58235e+22,9.73092e+10,0.177014,1.96638e+32,0.03468,0.000758094,9.97189e-08,4.89503e-54,3.8689e+15,1.91846e+16,2.31235e+12,2.30558e+16
3.95e+06,142760,9.7853e+06,3.68789e+25,2.78831e+22,9.98365e+10,0.177027,1.96561e+32,0.03468,0.000758091,9.97177e-08,4.8949e-54,3.86836e+15,1.91823e+16,2.31199e+12,2.30529e+16
4.05e+06,142747,9.78491e+06,3.97493e+25,3.00489e+22,1.02364e+11,0.177041,1.96483e+32,0.03468,0.000758087,9.97158e-08,4.89469e-54,3.8678e+15,1.91798e+16,2.31162e+12,2.305e+16
4.15e+06,142735,9.78451e+06,4.27647e+25,3.23236e+22,1.04891e+11,0.177055,1.96403e+32,0.03468,0.000758085,9.97147e-08,4.89458e-54,3.86724e+15,1.91774e+16,2.31125e+12,2.30469e+16
4.25e+06,142722,9.78411e+06,4.59287e+25,3.47098e+22,1.07418e+11,0.17707,1.9632e+32,0.03468,0.000758078,9.97114e-08,4.89423e-54,3.86665e+15,1.91748e+16,2.31087e+12,2.30438e+16
4.35e+06,142709,9.78369e+06,4.92449e+25,3.721e+22,1.09945e+11,0.177085,1.96236e+32,0.03468,0.000758068,9.97068e-08,4.89374e-54,3.86606e+15,1.91722e+16,2.31047e+12,2.30406e+16
4.45e+06,142695,9.78326e+06,5.27168e+25,3.9827e+22,1.12472e+11,0.1771,1.9615e+32,0.03468,0.000758071,9.97083e-08,4.89389e-54,3.86544e+15,1.91696e+16,2.31007e+12,2.30374e+16
4.55e+06,142681,9.78283e+06,5.63479e+25,4.25633e+22,1.15e+11,0.177116,1.96062e+32,0.03468,0.000758068,9.97068e-08,4.89373e-54,3.86482e+15,1.91669e+16,2.30966e+12,2.3034e+16
4.65e+06,142667,9.78238e+06,6.01418e+25,4.54214e+22,1.17527e+11,0.177132,1.95972e+32,0.03468,0.000758063,9.97044e-08,4.89348e-54,3.86418e+15,1.91641e+16,2.30924e+12,2.30306e+16
4.75e+06,142653,9.78193e+06,6.41021e+25,4.8404e+22,1.20054e+11,0.177148,1.9588e+32,0.03468,0.00075806,9.97031e-08,4.89333e-54,3.86353e+15,1.91613e+16,2.30881e+12,2.30271e+16
4.85e+06,142638,9.78146e+06,6.82322e+25,5.15137e+22,1.22581e+11,0.177164,1.95786e+32,0.03468,0.000758052,9.96992e-08,4.89292e-54,3.86286e+15,1.91584e+16,2.30837e+12,2.30236e+16
4.95e+06,142623,9.78099e+06,7.25358e+25,5.4753e+22,1.25108e+11,0.177181,1.95691e+32,0.03468,0.00075804,9.96937e-08,4.89233e-54,3.86219e+15,1.91554e+16,2.30792e+12,2.30199e+16
5.05e+06,142607,9.78051e+06,7.70164e+25,5.81244e+22,1.27635e+11,0.177199,1.95593e+32,0.03468,0.000758044,9.96954e-08,4.89251e-54,3.86149e+15,1.91524e+16,2.30747e+12,2.30162e+16
5.15e+06,142592,9.78001e+06,8.16774e+25,6.16306e+22,1.30162e+11,0.177216,1.95493e+32,0.03468,0.00075804,9.96937e-08,4.89232e-54,3.86079e+15,1.91494e+16,2.307e+12,2.30125e+16
5.25e+06,142576,9.77951e+06,8.65225e+25,6.52741e+22,1.32689e+11,0.177234,1.95392e+32,0.03468,0.000758035,9.96909e-08,4.89203e-54,3.86006e+15,1.91462e+16,2.30653e+12,2.30086e+16
5.35e+06,142560,9.779e+06,9.15551e+25,6.90574e+22,1.35216e+11,0.177253,1.95289e+32,0.03468,0.000758031,9.96894e-08,4.89186e-54,3.85933e+15,1.9143e+16,2.30604e+12,2.30047e+16
5.45e+06,142543,9.77848e+06,9.67789e+25,7.29831e+22,1.37743e+11,0.177271,1.95184e+32,0.03468,0.000758022,9.96849e-08,4.89137e-54,3.85858e+15,1.91398e+16,2.30555e+12,2.30007e+16
5.55e+06,142526,9.77794e+06,1.02197e+26,7.70537e+22,1.40269e+11,0.177291,1.95077e+32,0.03468,0.000758007,9.96784e-08,4.89068e-54,3.85782e+15,1.91365e+16,2.30505e+12,2.29966e+16
5.65e+06,142509,9.7774e+06,1.07814e+26,8.12717e+22,1.42796e+11,0.17731,1.94968e+32,0.03468,0.000758012,9.96805e-08,4.8909e-54,3.85705e+15,1.91331e+16,2.30454e+12,2.29925e+16
5.75e+06,142491,9.77685e+06,1.13632e+26,8.56397e+22,1.45323e+11,0.17733,1.94857e+32,0.03468,0.000758008,9.96784e-08,4.89068e-54,3.85626e+15,1.91297e+16,2.30402e+12,2.29883e+16
5.85e+06,142474,9.77629e+06,1.19655e+26,9.01601e+22,1.4785e+11,0.17735,1.94744e+32,0.03468,0.000758001,9.96753e-08,4.89034e-54,3.85545e+15,1.91262e+16,2.30349e+12,2.2984e+16
5.95e+06,142455,9.77572e+06,1.25887e+26,9.48355e+22,1.50377e+11,0.17737,1.94629e+32,0.03468,0.000757997,9.96735e-08,4.89015e-54,3.85464e+15,1.91227e+16,2.30295e+12,2.29796e+16
6.05e+06,142437,9.77514e+06,1.32332e+26,9.96683e+22,1.52903e+11,0.177391,1.94513e+32,0.03468,0.000757987,9.96683e-08,4.8896e-54,3.85381e+15,1.91191e+16,2.30241e+12,2.29752e+16
6.15e+06,142418,9.77455e+06,1.38992e+26,1.04661e+23,1.5543e+11,0.177412,1.94395e+32,0.03468,0.000757969,9.9661e-08,4.88881e-54,3.85296e+15,1.91154e+16,2.30185e+12,2.29707e+16
6.25e+06,142399,9.77395e+06,1.45871e+26,1.09816e+23,1.57957e+11,0.177434,1.94274e+32,0.03468,0.000757975,9.96633e-08,4.88906e-54,3.85211e+15,1.91117e+16,2.30129e+12,2.29661e+16
6.35e+06,142380,9.77334e+06,1.52973e+26,1.15136e+23,1.60483e+11,0.177455,1.94152e+32,0.03468,0.00075797,9.9661e-08,4.88881e-54,3.85124e+15,1.91079e+16,2.30071e+12,2.29614e+16
6.45e+06,142360,9.77272e+06,1.60301e+26,1.20624e+23,1.6301e+11,0.177478,1.94028e+32,0.03468,0.000757963,9.96574e-08,4.88842e-54,3.85035e+15,1.91041e+16,2.30013e+12,2.29567e+16
6.55e+06,142341,9.7721e+06,1.67859e+26,1.26281e+23,1.65537e+11,0.1775,1.93903e+32,0.03468,0.000757959,9.96554e-08,4.88821e-54,3.84945e+15,1.91002e+16,2.29954e+12,2.29519e+16
6.65e+06,142320,9.77146e+06,1.7565e+26,1.3211e+23,1.68063e+11,0.177523,1.93775e+32,0.03468,0.000757947,9.96496e-08,4.88759e-54,3.84854e+15,1.90962e+16,2.29894e+12,2.2947e+16
6.75e+06,142300,9.77081e+06,1.83678e+26,1.38115e+23,1.7059e+11,0.177546,1.93646e+32,0.03468,0.000757928,9.96413e-08,4.8867e-54,3.84762e+15,1.90922e+16,2.29833e+12,2.29421e+16
6.85e+06,142279,9.77015e+06,1.91946e+26,1.44296e+23,1.73116e+11,0.17757,1.93514e+32,0.03468,0.000757934,9.9644e-08,4.88698e-54,3.84668e+15,1.90881e+16,2.29771e+12,2.29371e+16
6.95e+06,142258,9.76949e+06,2.00458e+26,1.50657e+23,1.75643e+11,0.177594,1.93381e+32,0.03468,0.000757929,9.96414e-08,4.88671e-54,3.84573e+15,1.9084e+16,2.29709e+12,2.2932e+16
7.05e+06,142236,9.76881e+06,2.09217e+26,1.57199e+23,1.78169e+11,0.177618,1.93246e+32,0.03468,0.000757921,9.96374e-08,4.88627e-54,3.84476e+15,1.90798e+16,2.29645e+12,2.29268e+16
7.15e+06,142215,9.76813e+06,2.18227e+26,1.63927e+23,1.80695e+11,0.177643,1.93109e+32,0.03468,0.000757915,9.96352e-08,4.88603e-54,3.84378e+15,1.90755e+16,2.29581e+12,2.29216e+16
7.25e+06,142193,9.76743e+06,2.27491e+26,1.7084e+23,1.83222e+11,0.177668,1.92971e+32,0.03468,0.000757902,9.96288e-08,4.88535e-54,3.84279e+15,1.90712e+16,2.29515e+12,2.29163e+16
7.35e+06,142170,9.76673e+06,2.37013e+26,1.77943e+23,1.85748e+11,0.177693,1.9283e+32,0.03468,0.000757881,9.96195e-08,4.88436e-54,3.84178e+15,1.90668e+16,2.29449e+12,2.29109e+16
7.45e+06,142148,9.76601e+06,2.46795e+26,1.85238e+23,1.88274e+11,0.177719,1.92688e+32,0.03468,0.000757888,9.96225e-08,4.88467e-54,3.84076e+15,1.90624e+16,2.29382e+12,2.29054e+16
7.55e+06,142125,9.76529e+06,2.56842e+26,1.92726e+23,1.908e+11,0.177745,1.92544e+32,0.03468,0.000757882,9.96197e-08,4.88437e-54,3.83973e+15,1.90579e+16,2.29314e+12,2.28999e+16
7.65e+06,142101,9.76455e+06,2.67158e+26,2.00411e+23,1.93327e+11,0.177771,1.92398e+32,0.03468,0.000757874,9.96152e-08,4.88389e-54,3.83868e+15,1.90534e+16,2.29245e+12,2.28943e+16
7.75e+06,142078,9.76381e+06,2.77744e+26,2.08294e+23,1.95853e+11,0.177798,1.9225e+32,0.03468,0.000757868,9.96127e-08,4.88363e-54,3.83762e+15,1.90487e+16,2.29175e+12,2.28887e+16
7.85e+06,142054,9.76306e+06,2.88606e+26,2.16378e+23,1.98379e+11,0.177825,1.92101e+32,0.03468,0.000757853,9.96057e-08,4.88287e-54,3.83655e+15,1.90441e+16,2.29104e+12,2.28829e+16
7.95e+06,142030,9.76229e+06,2.99746e+26,2.24665e+23,2.00905e+11,0.177853,1.91949e+32,0.03468,0.00075783,9.95956e-08,4.88179e-54,3.83546e+15,1.90394e+16,2.29033e+12,2.28771e+16
8.05e+06,142005,9.76152e+06,3.11168e+26,2.33158e+23,2.03431e+11,0.17788,1.91796e+32,0.03468,0.000757838,9.95988e-08,4.88213e-54,3.83436e+15,1.90346e+16,2.2896e+12,2.28712e+16
8.15e+06,141981,9.76074e+06,3.22875e+26,2.41859e+23,2.05957e+11,0.177908,1.91642e+32,0.03468,0.000757831,9.95957e-08,4.8818e-54,3.83325e+15,1.90297e+16,2.28887e+12,2.28653e+16
8.25e+06,141956,9.75995e+06,3.34871e+26,2.50769e+23,2.08483e+11,0.177937,1.91485e+32,0.03468,0.000757822,9.95909e-08,4.88128e-54,3.83212e+15,1.90248e+16,2.28813e+12,2.28592e+16
8.35e+06,141930,9.75915e+06,3.47159e+26,2.59893e+23,2.11009e+11,0.177966,1.91326e+32,0.03468,0.000757815,9.95882e-08,4.88099e-54,3.83098e+15,1.90199e+16,2.28738e+12,2.28531e+16
8.45e+06,141905,9.75834e+06,3.59743e+26,2.69231e+23,2.13535e+11,0.177995,1.91166e+32,0.03468,0.0007578,9.95805e-08,4.88016e-54,3.82983e+15,1.90149e+16,2.28662e+12,2.2847e+16
8.55e+06,141879,9.75752e+06,3.72626e+26,2.78786e+23,2.16061e+11,0.178025,1.91004e+32,0.03468,0.000757774,9.95694e-08,4.87898e-54,3.82866e+15,1.90098e+16,2.28585e+12,2.28407e+16
8.65e+06,141852,9.75669e+06,3.85811e+26,2.8856e+23,2.18586e+11,0.178055,1.90841e+32,0.03468,0.000757783,9.9573e-08,4.87936e-54,3.82748e+15,1.90046e+16,2.28507e+12,2.28344e+16
8.75e+06,141826,9.75585e+06,3.99302e+26,2.98556e+23,2.21112e+11,0.178085,1.90675e+32,0.03468,0.000757776,9.95696e-08,4.879e-54,3.82629e+15,1.89995e+16,2.28429e+12,2.2828e+16
8.85e+06,141799,9.755e+06,4.13103e+26,3.08775e+23,2.23638e+11,0.178115,1.90508e+32,0.03468,0.000757765,9.95643e-08,4.87843e-54,3.82508e+15,1.89942e+16,2.28349e+12,2.28216e+16
8.95e+06,141772,9.75414e+06,4.27216e+26,3.1922e+23,2.26163e+11,0.178146,1.90339e+32,0.03468,0.000757758,9.95614e-08,4.87812e-54,3.82386e+15,1.89889e+16,2.28269e+12,2.2815e+16
9.05e+06,141744,9.75328e+06,4.41646e+26,3.29894e+23,2.28689e+11,0.178178,1.90168e+32,0.03468,0.000757742,9.95531e-08,4.87722e-54,3.82262e+15,1.89835e+16,2.28188e+12,2.28084e+16
9.15e+06,141717,9.7524e+06,4.56395e+26,3.40798e+23,2.31215e+11,0.178209,1.89996e+32,0.03468,0.000757714,9.95411e-08,4.87594e-54,3.82138e+15,1.89781e+16,2.28106e+12,2.28018e+16
9.25e+06,141689,9.75151e+06,4.71467e+26,3.51934e+23,2.3374e+11,0.178241,1.89821e+32,0.03468,0.000757723,9.95449e-08,4.87635e-54,3.82012e+15,1.89726e+16,2.28023e+12,2.2795e+16
9.35e+06,141660,9.75062e+06,4.86865e+26,3.63305e+23,2.36266e+11,0.178274,1.89645e+32,0.03468,0.000757715,9.95413e-08,4.87596e-54,3.81884e+15,1.89671e+16,2.27939e+12,2.27882e+16
9.45e+06,141632,9.74971e+06,5.02593e+26,3.74913e+23,2.38791e+11,0.178306,1.89468e+32,0.03468,0.000757704,9.95356e-08,4.87535e-54,3.81756e+15,1.89615e+16,2.27854e+12,2.27813e+16
9.55e+06,141603,9.74879e+06,5.18654e+26,3.8676e+23,2.41316e+11,0.17834,1.89288e+32,0.03468,0.000757697,9.95325e-08,4.87501e-54,3.81626e+15,1.89558e+16,2.27769e+12,2.27744e+16
9.65e+06,141573,9.74787e+06,5.35052e+26,3.98849e+23,2.43842e+11,0.178373,1.89107e+32,0.03468,0.000757679,9.95235e-08,4.87405e-54,3.81494e+15,1.89501e+16,2.27682e+12,2.27673e+16
9.75e+06,141544,9.74694e+06,5.5179e+26,4.1118e+23,2.46367e+11,0.178407,1.88925e+32,0.03468,0.000757648,9.95107e-08,4.87268e-54,3.81362e+15,1.89444e+16,2.27595e+12,2.27602e+16
9.85e+06,141514,9.74599e+06,5.68871e+26,4.23757e+23,2.48892e+11,0.178441,1.8874e+32,0.03468,0.000757658,9.95148e-08,4.87311e-54,3.81228e+15,1.89385e+16,2.27507e+12,2.27531e+16
9.95e+06,141484,9.74504e+06,5.86298e+26,4.36582e+23,2.51417e+11,0.178475,1.88554e+32,0.03468,0.00075765,9.95109e-08,4.8727e-54,3.81092e+15,1.89326e+16,2.27418e+12,2.27458e+16
1.005e+07,141454,9.74408e+06,6.04076e+26,4.49656e+23,2.53943e+11,0.17851,1.88366e+32,0.03468,0.000757638,9.95048e-08,4.87204e-54,3.80956e+15,1.89267e+16,2.27328e+12,2.27385e+16
1.015e+07,141423,9.7431e+06,6.22207e+26,4.62982e+23,2.56468e+11,0.178546,1.88176e+32,0.03468,0.00075763,9.95014e-08,4.87168e-54,3.80818e+15,1.89207e+16,2.27237e+12,2.27312e+16
1.025e+07,141392,9.74212e+06,6.40695e+26,4.76561e+23,2.58993e+11,0.178581,1.87985e+32,0.03468,0.000757611,9.94918e-08,4.87065e-54,3.80679e+15,1.89146e+16,2.27146e+12,2.27237e+16
1.035e+07,141360,9.74113e+06,6.59543e+26,4.90397e+23,2.61518e+11,0.178617,1.87792e+32,0.03468,0.000757579,9.9478e-08,4.86918e-54,3.80538e+15,1.89085e+16,2.27053e+12,2.27162e+16
1.045e+07,141329,9.74013e+06,6.78754e+26,5.0449e+23,2.64043e+11,0.178653,1.87598e+32,0.03468,0.00075759,9.94824e-08,4.86965e-54,3.80396e+15,1.89024e+16,2.2696e+12,2.27086e+16
1.055e+07,141297,9.73912e+06,6.98333e+26,5.18844e+23,2.66567e+11,0.17869,1.87401e+32,0.03468,0.000757581,9.94783e-08,4.8692e-54,3.80253e+15,1.88961e+16,2.26866e+12,2.27009e+16
1.065e+07,141265,9.7381e+06,7.18281e+26,5.33459e+23,2.69092e+11,0.178727,1.87204e+32,0.03468,0.000757568,9.94717e-08,4.8685e-54,3.80109e+15,1.88898e+16,2.26771e+12,2.26932e+16
1.075e+07,141232,9.73707e+06,7.38603e+26,5.48339e+23,2.71617e+11,0.178764,1.87004e+32,0.03468,0.00075756,9.94681e-08,4.86811e-54,3.79963e+15,1.88835e+16,2.26675e+12,2.26854e+16
1.085e+07,141199,9.73603e+06,7.59302e+26,5.63484e+23,2.74142e+11,0.178802,1.86803e+32,0.03468,0.000757539,9.94579e-08,4.86702e-54,3.79816e+15,1.88771e+16,2.26578e+12,2.26775e+16
1.095e+07,141166,9.73498e+06,7.80381e+26,5.78897e+23,2.76666e+11,0.17884,1.866e+32,0.03468,0.000757504,9.94432e-08,4.86545e-54,3.79667e+15,1.88706e+16,2.2648e+12,2.26696e+16
1.105e+07,141133,9.73392e+06,8.01843e+26,5.9458e+23,2.79191e+11,0.178878,1.86396e+32,0.03468,0.000757516,9.94479e-08,4.86595e-54,3.79518e+15,1.88641e+16,2.26382e+12,2.26616e+16
