X = 0.734
Y = 0.25
Z = 0.016
mu = 0.601142
Radius,Density,Temp,Mass,Lum,OptD,Kff,KH,Kes,PP,CNO,3a,Deg,Gas,Rad,TotPres
0,0,0,0,0,0,-nan,0,0.03468,0.00130551,1.26524e-06,1.33553e-51,0,0,0,0
1,149000,1.11034e+07,624130,815.598,17464.3,0.11721,6.26202e+32,0.03468,0.00130551,1.26524e-06,1.33553e-51,4.15428e+15,2.27175e+16,3.83273e+12,2.68757e+16
30001,149000,1.11034e+07,1.68532e+19,2.20233e+16,5.23947e+08,0.11721,6.26202e+32,0.03468,0.00130551,1.26524e-06,1.33553e-51,4.15428e+15,2.27175e+16,3.83273e+12,2.68757e+16
70001,149000,1.11034e+07,2.14086e+20,2.79762e+17,1.22252e+09,0.11721,6.26201e+32,0.03468,0.00130551,1.26524e-06,1.33553e-51,4.15427e+15,2.27175e+16,3.83273e+12,2.68756e+16
150001,149000,1.11034e+07,2.10648e+21,2.75268e+18,2.61966e+09,0.11721,6.26195e+32,0.03468,0.00130551,1.26524e-06,1.33553e-51,4.15426e+15,2.27175e+16,3.83272e+12,2.68756e+16
250001,148999,1.11033e+07,9.75211e+21,1.27437e+19,4.36609e+09,0.117211,6.26184e+32,0.03468,0.00130551,1.26524e-06,1.33553e-51,4.15423e+15,2.27173e+16,3.83269e+12,2.68754e+16
350001,148998,1.11033e+07,2.67596e+22,3.49681e+19,6.11252e+09,0.117211,6.26166e+32,0.03468,0.00130551,1.26524e-06,1.33553e-51,4.15419e+15,2.27171e+16,3.83265e+12,2.68752e+16
450001,148997,1.11033e+07,5.68735e+22,7.43183e+19,7.85895e+09,0.117212,6.26143e+32,0.03468,0.00130551,1.26524e-06,1.33553e-51,4.15413e+15,2.27169e+16,3.83259e+12,2.68748e+16
550001,148995,1.11032e+07,1.03838e+23,1.35686e+20,9.60538e+09,0.117213,6.26114e+32,0.03468,0.00130551,1.26524e-06,1.33553e-51,4.15406e+15,2.27165e+16,3.83252e+12,2.68744e+16
650001,148994,1.11031e+07,1.71398e+23,2.23962e+20,1.13518e+10,0.117215,6.26078e+32,0.03468,0.00130551,1.26524e-06,1.33553e-51,4.15398e+15,2.27161e+16,3.83243e+12,2.68739e+16
750001,148991,1.11031e+07,2.63297e+23,3.44036e+20,1.30982e+10,0.117216,6.26038e+32,0.03468,0.00130551,1.26524e-06,1.33553e-51,4.15388e+15,2.27156e+16,3.83233e+12,2.68734e+16
850001,148989,1.1103e+07,3.83278e+23,5.00796e+20,1.48446e+10,0.117218,6.25991e+32,0.03468,0.00130551,1.26524e-06,1.33553e-51,4.15377e+15,2.27151e+16,3.83222e+12,2.68727e+16
950001,148986,1.11029e+07,5.35085e+23,6.99128e+20,1.65911e+10,0.11722,6.25938e+32,0.03468,0.00130551,1.26524e-06,1.33553e-51,4.15364e+15,2.27145e+16,3.83209e+12,2.6872e+16
1.05e+06,148983,1.11028e+07,7.22462e+23,9.43916e+20,1.83375e+10,0.117222,6.2588e+32,0.03468,0.00130551,1.26524e-06,1.33553e-51,4.1535e+15,2.27138e+16,3.83195e+12,2.68712e+16
1.15e+06,148980,1.11027e+07,9.49149e+23,1.24004e+21,2.00839e+10,0.117224,6.25816e+32,0.03468,0.00130551,1.26524e-06,1.33553e-51,4.15334e+15,2.27131e+16,3.8318e+12,2.68703e+16
1.25e+06,148976,1.11026e+07,1.21889e+24,1.59239e+21,2.18303e+10,0.117227,6.25746e+32,0.03468,0.00130551,1.26524e-06,1.33553e-51,4.15317e+15,2.27123e+16,3.83163e+12,2.68693e+16
1.35e+06,148972,1.11024e+07,1.53543e+24,2.00583e+21,2.35767e+10,0.117229,6.2567e+32,0.03468,0.00130551,1.26524e-06,1.33552e-51,4.15299e+15,2.27114e+16,3.83144e+12,2.68682e+16
1.45e+06,148968,1.11023e+07,1.9025e+24,2.48524e+21,2.53231e+10,0.117232,6.25588e+32,0.03468,0.00130551,1.26524e-06,1.33552e-51,4.15279e+15,2.27105e+16,3.83124e+12,2.68671e+16
1.55e+06,148964,1.11021e+07,2.32384e+24,3.03549e+21,2.70695e+10,0.117236,6.25501e+32,0.03468,0.00130551,1.26523e-06,1.33552e-51,4.15258e+15,2.27095e+16,3.83103e+12,2.68659e+16
1.65e+06,148959,1.1102e+07,2.80321e+24,3.66145e+21,2.88158e+10,0.117239,6.25407e+32,0.03468,0.00130551,1.26523e-06,1.33551e-51,4.15236e+15,2.27084e+16,3.83081e+12,2.68646e+16
1.75e+06,148954,1.11018e+07,3.34433e+24,4.36798e+21,3.05622e+10,0.117243,6.25308e+32,0.03468,0.00130551,1.26523e-06,1.33551e-51,4.15212e+15,2.27073e+16,3.83057e+12,2.68632e+16
1.85e+06,148948,1.11016e+07,3.95094e+24,5.15995e+21,3.23086e+10,0.117246,6.25203e+32,0.03468,0.00130551,1.26522e-06,1.33549e-51,4.15187e+15,2.2706e+16,3.83031e+12,2.68617e+16
1.95e+06,148942,1.11014e+07,4.62678e+24,6.04221e+21,3.40549e+10,0.11725,6.25092e+32,0.03468,0.0013055,1.26522e-06,1.33548e-51,4.1516e+15,2.27048e+16,3.83004e+12,2.68602e+16
2.05e+06,148936,1.11012e+07,5.37559e+24,7.01961e+21,3.58013e+10,0.117255,6.24976e+32,0.03468,0.0013055,1.26522e-06,1.33548e-51,4.15132e+15,2.27034e+16,3.82976e+12,2.68586e+16
2.15e+06,148930,1.1101e+07,6.2011e+24,8.097e+21,3.75476e+10,0.117259,6.24853e+32,0.03468,0.0013055,1.26521e-06,1.33547e-51,4.15102e+15,2.2702e+16,3.82946e+12,2.68569e+16
2.25e+06,148923,1.11008e+07,7.10704e+24,9.27923e+21,3.9294e+10,0.117264,6.24725e+32,0.03468,0.0013055,1.2652e-06,1.33545e-51,4.15072e+15,2.27006e+16,3.82915e+12,2.68551e+16
2.35e+06,148916,1.11005e+07,8.09716e+24,1.05711e+22,4.10403e+10,0.117269,6.24591e+32,0.03468,0.0013055,1.2652e-06,1.33544e-51,4.15039e+15,2.2699e+16,3.82882e+12,2.68532e+16
2.45e+06,148909,1.11003e+07,9.17519e+24,1.19775e+22,4.27866e+10,0.117274,6.24451e+32,0.03468,0.00130549,1.26518e-06,1.3354e-51,4.15006e+15,2.26974e+16,3.82849e+12,2.68513e+16
2.55e+06,148902,1.11e+07,1.03448e+25,1.35033e+22,4.45329e+10,0.117279,6.24306e+32,0.03468,0.00130549,1.26516e-06,1.33536e-51,4.14971e+15,2.26957e+16,3.82813e+12,2.68493e+16
2.65e+06,148894,1.10998e+07,1.16099e+25,1.51532e+22,4.62792e+10,0.117285,6.24154e+32,0.03468,0.00130549,1.26517e-06,1.33537e-51,4.14934e+15,2.2694e+16,3.82776e+12,2.68472e+16
2.75e+06,148886,1.10995e+07,1.2974e+25,1.6932e+22,4.80255e+10,0.11729,6.23997e+32,0.03468,0.00130549,1.26516e-06,1.33535e-51,4.14896e+15,2.26922e+16,3.82738e+12,2.6845e+16
2.85e+06,148877,1.10992e+07,1.44409e+25,1.88447e+22,4.97718e+10,0.117296,6.23834e+32,0.03468,0.00130548,1.26515e-06,1.33532e-51,4.14857e+15,2.26903e+16,3.82699e+12,2.68427e+16
2.95e+06,148868,1.10989e+07,1.60144e+25,2.08959e+22,5.15181e+10,0.117303,6.23666e+32,0.03468,0.00130548,1.26514e-06,1.3353e-51,4.14816e+15,2.26884e+16,3.82658e+12,2.68403e+16
3.05e+06,148859,1.10986e+07,1.76982e+25,2.30906e+22,5.32644e+10,0.117309,6.23491e+32,0.03468,0.00130547,1.26512e-06,1.33525e-51,4.14774e+15,2.26864e+16,3.82615e+12,2.68379e+16
3.15e+06,148850,1.10983e+07,1.9496e+25,2.54334e+22,5.50106e+10,0.117316,6.23311e+32,0.03468,0.00130547,1.26508e-06,1.33517e-51,4.14731e+15,2.26843e+16,3.82571e+12,2.68354e+16
3.25e+06,148840,1.1098e+07,2.14115e+25,2.79292e+22,5.67568e+10,0.117322,6.23125e+32,0.03468,0.00130547,1.26509e-06,1.3352e-51,4.14686e+15,2.26821e+16,3.82526e+12,2.68328e+16
3.35e+06,148830,1.10976e+07,2.34484e+25,3.05827e+22,5.85031e+10,0.117329,6.22933e+32,0.03468,0.00130546,1.26508e-06,1.33517e-51,4.1464e+15,2.26799e+16,3.8248e+12,2.68301e+16
3.45e+06,148820,1.10973e+07,2.56105e+25,3.33987e+22,6.02493e+10,0.117337,6.22736e+32,0.03468,0.00130546,1.26506e-06,1.33513e-51,4.14592e+15,2.26776e+16,3.82432e+12,2.68274e+16
3.55e+06,148810,1.10969e+07,2.79015e+25,3.6382e+22,6.19955e+10,0.117344,6.22533e+32,0.03468,0.00130546,1.26505e-06,1.3351e-51,4.14543e+15,2.26753e+16,3.82382e+12,2.68246e+16
3.65e+06,148799,1.10965e+07,3.03251e+25,3.95373e+22,6.37417e+10,0.117352,6.22324e+32,0.03468,0.00130545,1.26502e-06,1.33503e-51,4.14493e+15,2.26729e+16,3.82331e+12,2.68216e+16
3.75e+06,148788,1.10962e+07,3.2885e+25,4.28695e+22,6.54879e+10,0.11736,6.22109e+32,0.03468,0.00130543,1.26498e-06,1.33493e-51,4.14441e+15,2.26704e+16,3.82279e+12,2.68187e+16
3.85e+06,148776,1.10958e+07,3.55849e+25,4.63831e+22,6.7234e+10,0.117368,6.21889e+32,0.03468,0.00130544,1.26499e-06,1.33496e-51,4.14388e+15,2.26679e+16,3.82225e+12,2.68156e+16
3.95e+06,148764,1.10954e+07,3.84286e+25,5.00829e+22,6.89802e+10,0.117376,6.21662e+32,0.03468,0.00130543,1.26498e-06,1.33493e-51,4.14333e+15,2.26653e+16,3.8217e+12,2.68124e+16
4.05e+06,148752,1.1095e+07,4.14197e+25,5.39738e+22,7.07263e+10,0.117384,6.21431e+32,0.03468,0.00130543,1.26496e-06,1.33488e-51,4.14277e+15,2.26626e+16,3.82114e+12,2.68092e+16
4.15e+06,148740,1.10945e+07,4.4562e+25,5.80603e+22,7.24724e+10,0.117393,6.21193e+32,0.03468,0.00130542,1.26494e-06,1.33485e-51,4.1422e+15,2.26599e+16,3.82056e+12,2.68059e+16
4.25e+06,148727,1.10941e+07,4.78591e+25,6.23472e+22,7.42185e+10,0.117402,6.2095e+32,0.03468,0.00130541,1.2649e-06,1.33476e-51,4.14161e+15,2.26571e+16,3.81997e+12,2.68025e+16
4.35e+06,148714,1.10937e+07,5.13149e+25,6.68391e+22,7.59646e+10,0.117411,6.20701e+32,0.03468,0.0013054,1.26485e-06,1.33463e-51,4.14101e+15,2.26542e+16,3.81936e+12,2.6799e+16
4.45e+06,148701,1.10932e+07,5.49328e+25,7.15409e+22,7.77107e+10,0.117421,6.20446e+32,0.03468,0.0013054,1.26487e-06,1.33467e-51,4.14039e+15,2.26512e+16,3.81874e+12,2.67955e+16
4.55e+06,148687,1.10928e+07,5.87168e+25,7.6457e+22,7.94567e+10,0.11743,6.20186e+32,0.03468,0.0013054,1.26485e-06,1.33463e-51,4.13976e+15,2.26482e+16,3.81811e+12,2.67918e+16
4.65e+06,148674,1.10923e+07,6.26705e+25,8.15923e+22,8.12028e+10,0.11744,6.1992e+32,0.03468,0.00130539,1.26482e-06,1.33457e-51,4.13912e+15,2.26452e+16,3.81746e+12,2.67881e+16
4.75e+06,148659,1.10918e+07,6.67975e+25,8.69513e+22,8.29488e+10,0.11745,6.19649e+32,0.03468,0.00130538,1.26481e-06,1.33453e-51,4.13846e+15,2.2642e+16,3.81679e+12,2.67843e+16
4.85e+06,148645,1.10913e+07,7.11016e+25,9.25388e+22,8.46948e+10,0.11746,6.19371e+32,0.03468,0.00130537,1.26476e-06,1.33442e-51,4.13779e+15,2.26388e+16,3.81612e+12,2.67804e+16
4.95e+06,148630,1.10908e+07,7.55864e+25,9.83592e+22,8.64408e+10,0.117471,6.19089e+32,0.03468,0.00130535,1.26469e-06,1.33427e-51,4.13711e+15,2.26355e+16,3.81543e+12,2.67765e+16
5.05e+06,148615,1.10903e+07,8.02557e+25,1.04417e+23,8.81867e+10,0.117481,6.188e+32,0.03468,0.00130536,1.26472e-06,1.33432e-51,4.13641e+15,2.26322e+16,3.81472e+12,2.67724e+16
5.15e+06,148600,1.10898e+07,8.51131e+25,1.10718e+23,8.99327e+10,0.117492,6.18506e+32,0.03468,0.00130535,1.26469e-06,1.33427e-51,4.1357e+15,2.26288e+16,3.814e+12,2.67683e+16
5.25e+06,148584,1.10892e+07,9.01623e+25,1.17265e+23,9.16786e+10,0.117503,6.18206e+32,0.03468,0.00130534,1.26466e-06,1.3342e-51,4.13497e+15,2.26253e+16,3.81327e+12,2.67641e+16
5.35e+06,148568,1.10887e+07,9.54071e+25,1.24064e+23,9.34245e+10,0.117515,6.17901e+32,0.03468,0.00130534,1.26464e-06,1.33415e-51,4.13423e+15,2.26218e+16,3.81253e+12,2.67598e+16
5.45e+06,148552,1.10881e+07,1.00851e+26,1.31119e+23,9.51704e+10,0.117526,6.1759e+32,0.03468,0.00130532,1.26459e-06,1.33403e-51,4.13348e+15,2.26182e+16,3.81176e+12,2.67555e+16
5.55e+06,148535,1.10876e+07,1.06498e+26,1.38434e+23,9.69163e+10,0.117538,6.17273e+32,0.03468,0.0013053,1.26451e-06,1.33386e-51,4.13271e+15,2.26145e+16,3.81099e+12,2.67511e+16
5.65e+06,148519,1.1087e+07,1.12351e+26,1.46014e+23,9.86621e+10,0.11755,6.16951e+32,0.03468,0.00130531,1.26454e-06,1.33391e-51,4.13193e+15,2.26108e+16,3.8102e+12,2.67465e+16
5.75e+06,148501,1.10864e+07,1.18415e+26,1.53865e+23,1.00408e+11,0.117562,6.16623e+32,0.03468,0.0013053,1.26451e-06,1.33386e-51,4.13114e+15,2.2607e+16,3.8094e+12,2.67419e+16
5.85e+06,148484,1.10858e+07,1.24692e+26,1.61989e+23,1.02154e+11,0.117574,6.1629e+32,0.03468,0.00130529,1.26448e-06,1.33377e-51,4.13033e+15,2.26031e+16,3.80858e+12,2.67373e+16
5.95e+06,148466,1.10852e+07,1.31187e+26,1.70392e+23,1.039e+11,0.117587,6.15951e+32,0.03468,0.00130528,1.26446e-06,1.33372e-51,4.1295e+15,2.25992e+16,3.80776e+12,2.67325e+16
6.05e+06,148448,1.10846e+07,1.37903e+26,1.79079e+23,1.05645e+11,0.1176,6.15607e+32,0.03468,0.00130527,1.26439e-06,1.33358e-51,4.12867e+15,2.25952e+16,3.80691e+12,2.67277e+16
6.15e+06,148430,1.1084e+07,1.44844e+26,1.88053e+23,1.07391e+11,0.117613,6.15257e+32,0.03468,0.00130524,1.26431e-06,1.33338e-51,4.12782e+15,2.25911e+16,3.80605e+12,2.67228e+16
6.25e+06,148411,1.10834e+07,1.52014e+26,1.97319e+23,1.09137e+11,0.117626,6.14901e+32,0.03468,0.00130525,1.26433e-06,1.33344e-51,4.12695e+15,2.2587e+16,3.80518e+12,2.67178e+16
6.35e+06,148392,1.10827e+07,1.59416e+26,2.06883e+23,1.10882e+11,0.117639,6.1454e+32,0.03468,0.00130524,1.26431e-06,1.33338e-51,4.12608e+15,2.25828e+16,3.8043e+12,2.67127e+16
6.45e+06,148373,1.10821e+07,1.67054e+26,2.16747e+23,1.12628e+11,0.117653,6.14174e+32,0.03468,0.00130523,1.26426e-06,1.33328e-51,4.12519e+15,2.25786e+16,3.8034e+12,2.67075e+16
6.55e+06,148354,1.10814e+07,1.74931e+26,2.26917e+23,1.14374e+11,0.117667,6.13802e+32,0.03468,0.00130522,1.26424e-06,1.33322e-51,4.12428e+15,2.25742e+16,3.80249e+12,2.67023e+16
6.65e+06,148334,1.10807e+07,1.83051e+26,2.37396e+23,1.16119e+11,0.117681,6.13424e+32,0.03468,0.0013052,1.26417e-06,1.33307e-51,4.12336e+15,2.25698e+16,3.80156e+12,2.6697e+16
6.75e+06,148314,1.108e+07,1.91418e+26,2.48191e+23,1.17865e+11,0.117695,6.13041e+32,0.03468,0.00130517,1.26407e-06,1.33284e-51,4.12243e+15,2.25654e+16,3.80062e+12,2.66916e+16
6.85e+06,148293,1.10793e+07,2.00036e+26,2.59304e+23,1.19611e+11,0.11771,6.12653e+32,0.03468,0.00130518,1.26411e-06,1.33291e-51,4.12148e+15,2.25609e+16,3.79966e+12,2.66861e+16
6.95e+06,148272,1.10786e+07,2.08908e+26,2.7074e+23,1.21356e+11,0.117724,6.12259e+32,0.03468,0.00130517,1.26408e-06,1.33284e-51,4.12052e+15,2.25563e+16,3.7987e+12,2.66806e+16
7.05e+06,148251,1.10779e+07,2.18037e+26,2.82504e+23,1.23102e+11,0.117739,6.1186e+32,0.03468,0.00130516,1.26403e-06,1.33273e-51,4.11955e+15,2.25516e+16,3.79772e+12,2.6675e+16
7.15e+06,148230,1.10772e+07,2.27428e+26,2.94599e+23,1.24847e+11,0.117755,6.11455e+32,0.03468,0.00130515,1.264e-06,1.33267e-51,4.11856e+15,2.25469e+16,3.79672e+12,2.66693e+16
7.25e+06,148209,1.10765e+07,2.37084e+26,3.07031e+23,1.26593e+11,0.11777,6.11045e+32,0.03468,0.00130513,1.26393e-06,1.3325e-51,4.11756e+15,2.25421e+16,3.79571e+12,2.66635e+16
7.35e+06,148187,1.10757e+07,2.47008e+26,3.19803e+23,1.28338e+11,0.117786,6.10629e+32,0.03468,0.0013051,1.26382e-06,1.33224e-51,4.11655e+15,2.25373e+16,3.79469e+12,2.66576e+16
7.45e+06,148164,1.1075e+07,2.57205e+26,3.32921e+23,1.30083e+11,0.117801,6.10208e+32,0.03468,0.00130511,1.26385e-06,1.33232e-51,4.11552e+15,2.25323e+16,3.79365e+12,2.66517e+16
7.55e+06,148142,1.10742e+07,2.67677e+26,3.46387e+23,1.31829e+11,0.117817,6.09782e+32,0.03468,0.0013051,1.26382e-06,1.33225e-51,4.11448e+15,2.25274e+16,3.7926e+12,2.66456e+16
7.65e+06,148119,1.10734e+07,2.78429e+26,3.60207e+23,1.33574e+11,0.117834,6.0935e+32,0.03468,0.00130508,1.26376e-06,1.33212e-51,4.11343e+15,2.25223e+16,3.79154e+12,2.66395e+16
7.75e+06,148096,1.10726e+07,2.89465e+26,3.74384e+23,1.3532e+11,0.11785,6.08913e+32,0.03468,0.00130507,1.26374e-06,1.33206e-51,4.11236e+15,2.25172e+16,3.79046e+12,2.66334e+16
7.85e+06,148073,1.10718e+07,3.00786e+26,3.88923e+23,1.37065e+11,0.117867,6.08471e+32,0.03468,0.00130505,1.26365e-06,1.33186e-51,4.11128e+15,2.2512e+16,3.78937e+12,2.66271e+16
7.95e+06,148049,1.1071e+07,3.12398e+26,4.03829e+23,1.3881e+11,0.117884,6.08023e+32,0.03468,0.00130501,1.26353e-06,1.33159e-51,4.11018e+15,2.25068e+16,3.78826e+12,2.66208e+16
8.05e+06,148025,1.10702e+07,3.24304e+26,4.19105e+23,1.40555e+11,0.117901,6.0757e+32,0.03468,0.00130503,1.26357e-06,1.33168e-51,4.10907e+15,2.25015e+16,3.78714e+12,2.66143e+16
8.15e+06,148001,1.10694e+07,3.36508e+26,4.34755e+23,1.42301e+11,0.117918,6.07111e+32,0.03468,0.00130502,1.26353e-06,1.33159e-51,4.10795e+15,2.24961e+16,3.78601e+12,2.66078e+16
8.25e+06,147976,1.10685e+07,3.49013e+26,4.50784e+23,1.44046e+11,0.117936,6.06648e+32,0.03468,0.001305,1.26348e-06,1.33146e-51,4.10681e+15,2.24907e+16,3.78487e+12,2.66013e+16
8.35e+06,147951,1.10677e+07,3.61822e+26,4.67195e+23,1.45791e+11,0.117953,6.06179e+32,0.03468,0.00130499,1.26344e-06,1.33138e-51,4.10566e+15,2.24852e+16,3.78371e+12,2.65946e+16
8.45e+06,147926,1.10668e+07,3.7494e+26,4.83994e+23,1.47536e+11,0.117971,6.05705e+32,0.03468,0.00130497,1.26335e-06,1.33117e-51,4.1045e+15,2.24796e+16,3.78253e+12,2.65879e+16
8.55e+06,147901,1.1066e+07,3.88369e+26,5.01184e+23,1.49281e+11,0.11799,6.05225e+32,0.03468,0.00130492,1.26322e-06,1.33087e-51,4.10332e+15,2.2474e+16,3.78135e+12,2.65811e+16
8.65e+06,147875,1.10651e+07,4.02114e+26,5.18769e+23,1.51026e+11,0.118008,6.0474e+32,0.03468,0.00130494,1.26326e-06,1.33097e-51,4.10213e+15,2.24683e+16,3.78015e+12,2.65742e+16
8.75e+06,147849,1.10642e+07,4.16178e+26,5.36753e+23,1.52771e+11,0.118027,6.0425e+32,0.03468,0.00130493,1.26322e-06,1.33088e-51,4.10093e+15,2.24625e+16,3.77893e+12,2.65672e+16
8.85e+06,147823,1.10633e+07,4.30565e+26,5.55141e+23,1.54516e+11,0.118045,6.03755e+32,0.03468,0.00130491,1.26316e-06,1.33073e-51,4.09971e+15,2.24567e+16,3.77771e+12,2.65602e+16
8.95e+06,147796,1.10624e+07,4.45278e+26,5.73935e+23,1.56261e+11,0.118064,6.03255e+32,0.03468,0.0013049,1.26313e-06,1.33065e-51,4.09848e+15,2.24508e+16,3.77646e+12,2.65531e+16
9.05e+06,147769,1.10615e+07,4.60321e+26,5.93142e+23,1.58006e+11,0.118084,6.02749e+32,0.03468,0.00130487,1.26303e-06,1.33043e-51,4.09724e+15,2.24449e+16,3.77521e+12,2.65459e+16
9.15e+06,147742,1.10605e+07,4.75697e+26,6.12763e+23,1.59751e+11,0.118103,6.02238e+32,0.03468,0.00130483,1.26289e-06,1.3301e-51,4.09598e+15,2.24388e+16,3.77394e+12,2.65386e+16
9.25e+06,147714,1.10596e+07,4.91409e+26,6.32805e+23,1.61496e+11,0.118123,6.01722e+32,0.03468,0.00130484,1.26293e-06,1.3302e-51,4.09471e+15,2.24328e+16,3.77266e+12,2.65312e+16
9.35e+06,147687,1.10587e+07,5.07463e+26,6.53269e+23,1.63241e+11,0.118143,6.01201e+32,0.03468,0.00130483,1.26289e-06,1.3301e-51,4.09342e+15,2.24266e+16,3.77137e+12,2.65238e+16
9.45e+06,147658,1.10577e+07,5.2386e+26,6.74161e+23,1.64986e+11,0.118163,6.00675e+32,0.03468,0.00130481,1.26282e-06,1.32995e-51,4.09213e+15,2.24204e+16,3.77006e+12,2.65163e+16
9.55e+06,147630,1.10567e+07,5.40605e+26,6.95484e+23,1.6673e+11,0.118183,6.00143e+32,0.03468,0.0013048,1.26278e-06,1.32986e-51,4.09082e+15,2.24141e+16,3.76874e+12,2.65087e+16
9.65e+06,147601,1.10557e+07,5.57701e+26,7.17242e+23,1.68475e+11,0.118204,5.99607e+32,0.03468,0.00130477,1.26268e-06,1.32962e-51,4.08949e+15,2.24078e+16,3.7674e+12,2.65011e+16
9.75e+06,147572,1.10548e+07,5.75151e+26,7.39439e+23,1.7022e+11,0.118225,5.99065e+32,0.03468,0.00130472,1.26253e-06,1.32927e-51,4.08815e+15,2.24014e+16,3.76605e+12,2.64933e+16
9.85e+06,147543,1.10538e+07,5.9296e+26,7.62079e+23,1.71965e+11,0.118246,5.98519e+32,0.03468,0.00130474,1.26257e-06,1.32938e-51,4.0868e+15,2.23949e+16,3.76469e+12,2.64855e+16
9.95e+06,147514,1.10527e+07,6.1113e+26,7.85166e+23,1.73709e+11,0.118267,5.97967e+32,0.03468,0.00130472,1.26253e-06,1.32927e-51,4.08544e+15,2.23884e+16,3.76332e+12,2.64776e+16
1.005e+07,147484,1.10517e+07,6.29665e+26,8.08704e+23,1.75454e+11,0.118288,5.9741e+32,0.03468,0.00130471,1.26246e-06,1.3291e-51,4.08406e+15,2.23818e+16,3.76193e+12,2.64696e+16
1.015e+07,147454,1.10507e+07,6.48569e+26,8.32696e+23,1.77198e+11,0.11831,5.96849e+32,0.03468,0.00130469,1.26242e-06,1.32901e-51,4.08267e+15,2.23751e+16,3.76053e+12,2.64616e+16
1.025e+07,147423,1.10497e+07,6.67846e+26,8.57146e+23,1.78943e+11,0.118332,5.96282e+32,0.03468,0.00130466,1.2623e-06,1.32875e-51,4.08127e+15,2.23684e+16,3.75911e+12,2.64534e+16
1.035e+07,147393,1.10486e+07,6.87498e+26,8.82058e+23,1.80687e+11,0.118354,5.9571e+32,0.03468,0.00130461,1.26214e-06,1.32837e-51,4.07985e+15,2.23616e+16,3.75768e+12,2.64452e+16
1.045e+07,147362,1.10475e+07,7.07529e+26,9.07436e+23,1.82432e+11,0.118376,5.95133e+32,0.03468,0.00130463,1.26219e-06,1.32849e-51,4.07842e+15,2.23548e+16,3.75624e+12,2.6437e+16
1.055e+07,147330,1.10465e+07,7.27944e+26,9.33283e+23,1.84176e+11,0.118399,5.94552e+32,0.03468,0.00130461,1.26214e-06,1.32838e-51,4.07698e+15,2.23479e+16,3.75479e+12,2.64286e+16
1.065e+07,147299,1.10454e+07,7.48744e+26,9.59603e+23,1.8592e+11,0.118421,5.93965e+32,0.03468,0.00130459,1.26206e-06,1.3282e-51,4.07552e+15,2.23409e+16,3.75332e+12,2.64202e+16
1.075e+07,147267,1.10443e+07,7.69934e+26,9.864e+23,1.87665e+11,0.118444,5.93373e+32,0.03468,0.00130458,1.26202e-06,1.3281e-51,4.07405e+15,2.23339e+16,3.75184e+12,2.64117e+16
1.085e+07,147235,1.10432e+07,7.91518e+26,1.01368e+24,1.89409e+11,0.118468,5.92777e+32,0.03468,0.00130454,1.2619e-06,1.32782e-51,4.07257e+15,2.23268e+16,3.75034e+12,2.64031e+16
1.095e+07,147202,1.10421e+07,8.13498e+26,1.04144e+24,1.91153e+11,0.118491,5.92175e+32,0.03468,0.00130449,1.26173e-06,1.32742e-51,4.07107e+15,2.23196e+16,3.74883e+12,2.63944e+16
1.105e+07,147169,1.1041e+07,8.35878e+26,1.06969e+24,1.92898e+11,0.118515,5.91569e+32,0.03468,0.00130451,1.26178e-06,1.32755e-51,4.06956e+15,2.23124e+16,3.74731e+12,2.63857e+16
