X = 0.734
Y = 0.25
Z = 0.016
mu = 0.601142
Radius,Density,Temp,Mass,Lum,OptD,Kff,KH,Kes,PP,CNO,3a,Deg,Gas,Rad,TotPres
0,0,0,0,0,0,-nan,0,0.03468,0.00190082,1.35708e-05,2.60382e-49,0,0,0,0
1,131270,1.25893e+07,549861,1052.65,9072.03,0.0691099,1.82017e+33,0.03468,0.00190082,1.35708e-05,2.60382e-49,3.3635e+15,2.26926e+16,6.33418e+12,2.60624e+16
15001,131270,1.25893e+07,1.85615e+18,3.55339e+15,1.36089e+08,0.0691099,1.82017e+33,0.03468,0.00190082,1.35708e-05,2.60382e-49,3.3635e+15,2.26926e+16,6.33418e+12,2.60624e+16
31001,131270,1.25893e+07,1.63825e+19,3.13624e+16,2.81242e+08,0.0691099,1.82017e+33,0.03468,0.00190082,1.35708e-05,2.60382e-49,3.3635e+15,2.26926e+16,6.33418e+12,2.60624e+16
63001,131269,1.25893e+07,1.37497e+20,2.63223e+17,5.71547e+08,0.0691099,1.82017e+33,0.03468,0.00190082,1.35708e-05,2.60382e-49,3.3635e+15,2.26926e+16,6.33418e+12,2.60624e+16
127001,131269,1.25892e+07,1.12635e+21,2.15627e+18,1.15216e+09,0.06911,1.82016e+33,0.03468,0.00190082,1.35708e-05,2.60382e-49,3.36349e+15,2.26926e+16,6.33416e+12,2.60624e+16
255001,131269,1.25892e+07,9.11752e+21,1.74543e+19,2.31338e+09,0.0691102,1.82013e+33,0.03468,0.00190082,1.35708e-05,2.60382e-49,3.36347e+15,2.26924e+16,6.33412e+12,2.60622e+16
511001,131267,1.25891e+07,7.33689e+22,1.40451e+20,4.63581e+09,0.0691112,1.81999e+33,0.03468,0.00190082,1.35708e-05,2.60382e-49,3.36338e+15,2.26919e+16,6.33393e+12,2.60616e+16
1.011e+06,131258,1.25888e+07,5.68179e+23,1.08756e+21,9.17179e+09,0.0691149,1.81947e+33,0.03468,0.00190082,1.35708e-05,2.60382e-49,3.36302e+15,2.26898e+16,6.33322e+12,2.60592e+16
1.511e+06,131244,1.25882e+07,1.89669e+24,3.62983e+21,1.37077e+10,0.0691211,1.81862e+33,0.03468,0.00190082,1.35708e-05,2.60382e-49,3.36243e+15,2.26863e+16,6.33204e+12,2.60551e+16
2.011e+06,131225,1.25874e+07,4.47097e+24,8.55427e+21,1.82436e+10,0.0691297,1.81742e+33,0.03468,0.00190082,1.35708e-05,2.60382e-49,3.3616e+15,2.26815e+16,6.33039e+12,2.60495e+16
2.511e+06,131200,1.25863e+07,8.70275e+24,1.66456e+22,2.27793e+10,0.0691408,1.81588e+33,0.03468,0.00190082,1.35708e-05,2.60382e-49,3.36055e+15,2.26754e+16,6.32828e+12,2.60423e+16
3.011e+06,131170,1.2585e+07,1.50034e+25,2.86855e+22,2.73149e+10,0.0691544,1.81401e+33,0.03468,0.00190082,1.35708e-05,2.60382e-49,3.35927e+15,2.26679e+16,6.3257e+12,2.60335e+16
3.511e+06,131135,1.25835e+07,2.37837e+25,4.54521e+22,3.18503e+10,0.0691705,1.81179e+33,0.03468,0.00190082,1.35708e-05,2.60382e-49,3.35775e+15,2.2659e+16,6.32265e+12,2.60231e+16
4.011e+06,131094,1.25818e+07,3.54538e+25,6.77187e+22,3.63856e+10,0.0691891,1.80925e+33,0.03468,0.00190082,1.35708e-05,2.60382e-49,3.35601e+15,2.26488e+16,6.31913e+12,2.60111e+16
4.511e+06,131048,1.25798e+07,5.04234e+25,9.62536e+22,4.09207e+10,0.0692102,1.80637e+33,0.03468,0.00190082,1.35708e-05,2.60382e-49,3.35404e+15,2.26373e+16,6.31515e+12,2.59976e+16
5.011e+06,130996,1.25776e+07,6.9101e+25,1.31819e+23,4.54556e+10,0.0692337,1.80315e+33,0.03468,0.00190082,1.35708e-05,2.60382e-49,3.35184e+15,2.26244e+16,6.31071e+12,2.59825e+16
5.511e+06,130939,1.25751e+07,9.18944e+25,1.75171e+23,4.99902e+10,0.0692598,1.79961e+33,0.03468,0.00190082,1.35708e-05,2.60382e-49,3.34942e+15,2.26102e+16,6.30581e+12,2.59659e+16
6.011e+06,130877,1.25725e+07,1.1921e+26,2.27058e+23,5.45245e+10,0.0692883,1.79574e+33,0.03468,0.00190082,1.35708e-05,2.60382e-49,3.34676e+15,2.25946e+16,6.30044e+12,2.59477e+16
6.511e+06,130810,1.25695e+07,1.51455e+26,2.88219e+23,5.90585e+10,0.0693194,1.79154e+33,0.03468,0.00190082,1.35708e-05,2.60382e-49,3.34388e+15,2.25777e+16,6.29461e+12,2.59279e+16
7.011e+06,130737,1.25664e+07,1.89032e+26,3.59387e+23,6.35923e+10,0.0693529,1.78702e+33,0.03468,0.00190082,1.35708e-05,2.60382e-49,3.34078e+15,2.25595e+16,6.28833e+12,2.59065e+16
7.511e+06,130658,1.2563e+07,2.32344e+26,4.41284e+23,6.81257e+10,0.069389,1.78218e+33,0.03468,0.00190082,1.35708e-05,2.60382e-49,3.33744e+15,2.25399e+16,6.28158e+12,2.58837e+16
8.011e+06,130575,1.25594e+07,2.81794e+26,5.34621e+23,7.26587e+10,0.0694275,1.77702e+33,0.03468,0.00190082,1.35708e-05,2.60382e-49,3.33389e+15,2.25191e+16,6.27438e+12,2.58592e+16
8.511e+06,130486,1.25556e+07,3.37782e+26,6.401e+23,7.71913e+10,0.0694686,1.77154e+33,0.03468,0.00190082,1.35708e-05,2.60382e-49,3.33011e+15,2.24969e+16,6.26673e+12,2.58332e+16
9.011e+06,130392,1.25515e+07,4.00706e+26,7.58411e+23,8.17235e+10,0.0695122,1.76575e+33,0.03468,0.00190082,1.35708e-05,2.60382e-49,3.3261e+15,2.24734e+16,6.25862e+12,2.58057e+16
9.511e+06,130292,1.25473e+07,4.70963e+26,8.90231e+23,8.62553e+10,0.0695583,1.75965e+33,0.03468,0.00190082,1.35708e-05,2.60382e-49,3.32188e+15,2.24485e+16,6.25007e+12,2.57767e+16
1.0011e+07,130188,1.25427e+07,5.48949e+26,1.03623e+24,9.07867e+10,0.0696069,1.75325e+33,0.03468,0.00190082,1.35708e-05,2.60382e-49,3.31743e+15,2.24224e+16,6.24106e+12,2.57461e+16
1.0511e+07,130078,1.2538e+07,6.35055e+26,1.19705e+24,9.53175e+10,0.0696581,1.74654e+33,0.03468,0.00190082,1.35708e-05,2.60382e-49,3.31276e+15,2.2395e+16,6.23161e+12,2.5714e+16
1.1011e+07,129963,1.2533e+07,7.29674e+26,1.37334e+24,9.98479e+10,0.0697118,1.73954e+33,0.03468,0.00190082,1.35708e-05,2.60382e-49,3.30787e+15,2.23663e+16,6.22172e+12,2.56804e+16
1.1511e+07,129842,1.25278e+07,8.33195e+26,1.56571e+24,1.04378e+11,0.069768,1.73224e+33,0.03468,0.00190082,1.35708e-05,2.60382e-49,3.30277e+15,2.23363e+16,6.21138e+12,2.56453e+16
1.2011e+07,129717,1.25224e+07,9.46005e+26,1.77479e+24,1.08907e+11,0.0698268,1.72465e+33,0.03468,0.00190082,1.35708e-05,2.60381e-49,3.29745e+15,2.2305e+16,6.20061e+12,2.56086e+16
1.2511e+07,129586,1.25167e+07,1.06849e+27,2.00115e+24,1.13436e+11,0.0698881,1.71678e+33,0.03468,0.00190082,1.35708e-05,2.60381e-49,3.29191e+15,2.22724e+16,6.18939e+12,2.55705e+16
1.3011e+07,129450,1.25108e+07,1.20103e+27,2.24539e+24,1.17964e+11,0.0699519,1.70862e+33,0.03468,0.00190082,1.35708e-05,2.60381e-49,3.28615e+15,2.22386e+16,6.17775e+12,2.55309e+16
1.3511e+07,129309,1.25047e+07,1.344e+27,2.50805e+24,1.22491e+11,0.0700184,1.70019e+33,0.03468,0.00190081,1.35708e-05,2.60381e-49,3.28019e+15,2.22035e+16,6.16567e+12,2.54898e+16
1.4011e+07,129163,1.24983e+07,1.49779e+27,2.7897e+24,1.27018e+11,0.0700874,1.69148e+33,0.03468,0.00190081,1.35708e-05,2.6038e-49,3.27401e+15,2.21671e+16,6.15316e+12,2.54473e+16
1.4511e+07,129011,1.24918e+07,1.66276e+27,3.09084e+24,1.31544e+11,0.0701589,1.6825e+33,0.03468,0.00190081,1.35708e-05,2.6038e-49,3.26762e+15,2.21295e+16,6.14023e+12,2.54033e+16
1.5011e+07,128855,1.2485e+07,1.83929e+27,3.41199e+24,1.3607e+11,0.0702331,1.67326e+33,0.03468,0.00190081,1.35708e-05,2.6038e-49,3.26102e+15,2.20907e+16,6.12687e+12,2.53578e+16
1.5511e+07,128693,1.24779e+07,2.02775e+27,3.75365e+24,1.40594e+11,0.0703098,1.66377e+33,0.03468,0.00190081,1.35707e-05,2.60379e-49,3.25421e+15,2.20506e+16,6.11309e+12,2.53109e+16
1.6011e+07,128527,1.24707e+07,2.22851e+27,4.11628e+24,1.45118e+11,0.0703891,1.65402e+33,0.03468,0.00190081,1.35707e-05,2.60379e-49,3.2472e+15,2.20092e+16,6.0989e+12,2.52625e+16
1.6511e+07,128355,1.24632e+07,2.44192e+27,4.50033e+24,1.49642e+11,0.070471,1.64402e+33,0.03468,0.00190081,1.35707e-05,2.60377e-49,3.23997e+15,2.19667e+16,6.0843e+12,2.52127e+16
1.7011e+07,128179,1.24555e+07,2.66835e+27,4.90625e+24,1.54164e+11,0.0705555,1.63378e+33,0.03468,0.00190081,1.35706e-05,2.60375e-49,3.23255e+15,2.19229e+16,6.06928e+12,2.51615e+16
1.7511e+07,127997,1.24476e+07,2.90816e+27,5.33445e+24,1.58686e+11,0.0706427,1.6233e+33,0.03468,0.00190081,1.35706e-05,2.60375e-49,3.22492e+15,2.1878e+16,6.05386e+12,2.51089e+16
1.8011e+07,127811,1.24395e+07,3.16169e+27,5.78532e+24,1.63207e+11,0.0707324,1.6126e+33,0.03468,0.00190081,1.35706e-05,2.60374e-49,3.2171e+15,2.18318e+16,6.03803e+12,2.50549e+16
1.8511e+07,127619,1.24311e+07,3.42931e+27,6.25923e+24,1.67727e+11,0.0708248,1.60166e+33,0.03468,0.00190081,1.35706e-05,2.60371e-49,3.20907e+15,2.17844e+16,6.02181e+12,2.49995e+16
1.9011e+07,127423,1.24225e+07,3.71135e+27,6.75654e+24,1.72246e+11,0.0709199,1.59051e+33,0.03468,0.0019008,1.35705e-05,2.60369e-49,3.20085e+15,2.17359e+16,6.00519e+12,2.49428e+16
1.9511e+07,127222,1.24137e+07,4.00816e+27,7.27758e+24,1.76764e+11,0.0710175,1.57914e+33,0.03468,0.0019008,1.35703e-05,2.60361e-49,3.19243e+15,2.16862e+16,5.98817e+12,2.48846e+16
2.0011e+07,127016,1.24047e+07,4.32008e+27,7.82268e+24,1.81281e+11,0.0711179,1.56756e+33,0.03468,0.00190079,1.35702e-05,2.60355e-49,3.18382e+15,2.16353e+16,5.97077e+12,2.48251e+16
2.0511e+07,126805,1.23954e+07,4.64744e+27,8.3921e+24,1.85797e+11,0.0712209,1.55578e+33,0.03468,0.00190079,1.35702e-05,2.60356e-49,3.17501e+15,2.15833e+16,5.95299e+12,2.47643e+16
2.1011e+07,126589,1.2386e+07,4.99059e+27,8.98614e+24,1.90313e+11,0.0713265,1.54381e+33,0.03468,0.00190079,1.35701e-05,2.60352e-49,3.16602e+15,2.15302e+16,5.93482e+12,2.47021e+16
2.1511e+07,126369,1.23763e+07,5.34984e+27,9.60503e+24,1.94827e+11,0.0714349,1.53164e+33,0.03468,0.00190078,1.35698e-05,2.6034e-49,3.15684e+15,2.14759e+16,5.91628e+12,2.46386e+16
2.2011e+07,126144,1.23664e+07,5.72552e+27,1.0249e+25,1.9934e+11,0.071546,1.51929e+33,0.03468,0.00190077,1.35696e-05,2.60332e-49,3.14747e+15,2.14204e+16,5.89737e+12,2.45738e+16
2.2511e+07,125914,1.23562e+07,6.11796e+27,1.09183e+25,2.03853e+11,0.0716597,1.50676e+33,0.03468,0.00190074,1.35688e-05,2.60299e-49,3.13792e+15,2.13639e+16,5.87808e+12,2.45077e+16
2.3011e+07,125679,1.23459e+07,6.52747e+27,1.1613e+25,2.08364e+11,0.0717762,1.49406e+33,0.03468,0.00190071,1.35682e-05,2.60273e-49,3.12818e+15,2.13063e+16,5.85844e+12,2.44403e+16
2.3511e+07,125440,1.23354e+07,6.95436e+27,1.23334e+25,2.12874e+11,0.0718954,1.4812e+33,0.03468,0.00190072,1.35683e-05,2.60277e-49,3.11826e+15,2.12476e+16,5.83843e+12,2.43717e+16
2.4011e+07,125196,1.23246e+07,7.39894e+27,1.30795e+25,2.17383e+11,0.0720174,1.46817e+33,0.03468,0.0019007,1.35679e-05,2.6026e-49,3.10817e+15,2.11877e+16,5.81808e+12,2.43017e+16
2.4511e+07,124948,1.23136e+07,7.86153e+27,1.38516e+25,2.21891e+11,0.072142,1.45499e+33,0.03468,0.00190066,1.35668e-05,2.60213e-49,3.0979e+15,2.11269e+16,5.79737e+12,2.42306e+16
2.5011e+07,124695,1.23024e+07,8.3424e+27,1.46496e+25,2.26398e+11,0.0722695,1.44167e+33,0.03468,0.00190063,1.35661e-05,2.60183e-49,3.08745e+15,2.10649e+16,5.77631e+12,2.41582e+16
2.5511e+07,124438,1.2291e+07,8.84188e+27,1.54737e+25,2.30903e+11,0.0723997,1.4282e+33,0.03468,0.00190051,1.35631e-05,2.60057e-49,3.07684e+15,2.10019e+16,5.75491e+12,2.40845e+16
2.6011e+07,124176,1.22794e+07,9.36023e+27,1.63239e+25,2.35407e+11,0.0725327,1.41461e+33,0.03468,0.00190041,1.35606e-05,2.59955e-49,3.06605e+15,2.09379e+16,5.73318e+12,2.40097e+16
2.6511e+07,123909,1.22675e+07,9.89776e+27,1.72003e+25,2.3991e+11,0.0726686,1.40088e+33,0.03468,0.00190042,1.3561e-05,2.59969e-49,3.0551e+15,2.08729e+16,5.71112e+12,2.39337e+16
2.7011e+07,123639,1.22555e+07,1.04547e+28,1.81029e+25,2.44412e+11,0.0728072,1.38704e+33,0.03468,0.00190037,1.35594e-05,2.59905e-49,3.04398e+15,2.08068e+16,5.68873e+12,2.38565e+16
2.7511e+07,123363,1.22433e+07,1.10315e+28,1.90316e+25,2.48913e+11,0.0729486,1.37308e+33,0.03468,0.00190028,1.35572e-05,2.59812e-49,3.03269e+15,2.07397e+16,5.66601e+12,2.37781e+16
2.8011e+07,123084,1.22308e+07,1.16282e+28,1.99864e+25,2.53412e+11,0.0730929,1.35901e+33,0.03468,0.00190023,1.35559e-05,2.59756e-49,3.02125e+15,2.06717e+16,5.64298e+12,2.36986e+16
2.8511e+07,122800,1.22181e+07,1.22452e+28,2.09674e+25,2.5791e+11,0.07324,1.34484e+33,0.03468,0.00190006,1.35515e-05,2.59571e-49,3.00964e+15,2.06027e+16,5.61964e+12,2.36179e+16
2.9011e+07,122512,1.22053e+07,1.28827e+28,2.19743e+25,2.62407e+11,0.07339,1.33057e+33,0.03468,0.00189983,1.35461e-05,2.59345e-49,2.99789e+15,2.05327e+16,5.59599e+12,2.35361e+16
2.9511e+07,122219,1.21922e+07,1.3541e+28,2.30071e+25,2.66902e+11,0.0735429,1.31622e+33,0.03468,0.00189989,1.35476e-05,2.59407e-49,2.98597e+15,2.04617e+16,5.57204e+12,2.34533e+16
3.0011e+07,121923,1.21789e+07,1.42204e+28,2.40657e+25,2.71396e+11,0.0736987,1.30179e+33,0.03468,0.00189981,1.35454e-05,2.59317e-49,2.97391e+15,2.03898e+16,5.54779e+12,2.33693e+16
3.0511e+07,121622,1.21654e+07,1.49211e+28,2.515e+25,2.75888e+11,0.0738573,1.28727e+33,0.03468,0.00189969,1.35422e-05,2.5918e-49,2.96169e+15,2.0317e+16,5.52325e+12,2.32842e+16
3.1011e+07,121317,1.21517e+07,1.56434e+28,2.62598e+25,2.80379e+11,0.0740189,1.27269e+33,0.03468,0.00189961,1.35402e-05,2.59099e-49,2.94933e+15,2.02433e+16,5.49842e+12,2.31981e+16
3.1511e+07,121008,1.21378e+07,1.63874e+28,2.73949e+25,2.84869e+11,0.0741834,1.25805e+33,0.03468,0.00189938,1.35343e-05,2.58851e-49,2.93682e+15,2.01686e+16,5.47331e+12,2.31109e+16
3.2011e+07,120695,1.21237e+07,1.71534e+28,2.85552e+25,2.89357e+11,0.0743509,1.24335e+33,0.03468,0.00189904,1.35263e-05,2.58516e-49,2.92417e+15,2.00931e+16,5.44792e+12,2.30227e+16
3.2511e+07,120378,1.21094e+07,1.79417e+28,2.97404e+25,2.93843e+11,0.0745214,1.22859e+33,0.03468,0.00189914,1.35287e-05,2.58617e-49,2.91139e+15,2.00167e+16,5.42227e+12,2.29335e+16
3.3011e+07,120058,1.20949e+07,1.87525e+28,3.09504e+25,2.98328e+11,0.0746948,1.2138e+33,0.03468,0.00189904,1.35259e-05,2.585e-49,2.89846e+15,1.99394e+16,5.39634e+12,2.28433e+16
3.3511e+07,119733,1.20802e+07,1.95859e+28,3.21848e+25,3.02812e+11,0.0748712,1.19896e+33,0.03468,0.00189888,1.35216e-05,2.58318e-49,2.8854e+15,1.98613e+16,5.37016e+12,2.27521e+16
3.4011e+07,119404,1.20653e+07,2.04423e+28,3.34433e+25,3.07293e+11,0.0750507,1.18409e+33,0.03468,0.00189877,1.3519e-05,2.58213e-49,2.87221e+15,1.97823e+16,5.34372e+12,2.26599e+16
3.4511e+07,119071,1.20502e+07,2.13217e+28,3.47258e+25,3.11774e+11,0.0752331,1.16919e+33,0.03468,0.00189848,1.35116e-05,2.579e-49,2.85889e+15,1.97026e+16,5.31703e+12,2.25668e+16
3.5011e+07,118735,1.20349e+07,2.22245e+28,3.60319e+25,3.16252e+11,0.0754187,1.15428e+33,0.03468,0.00189803,1.35011e-05,2.57463e-49,2.84544e+15,1.9622e+16,5.2901e+12,2.24727e+16
3.5511e+07,118395,1.20194e+07,2.31508e+28,3.73614e+25,3.20729e+11,0.0756073,1.13934e+33,0.03468,0.00189818,1.35043e-05,2.57598e-49,2.83186e+15,1.95406e+16,5.26293e+12,2.23777e+16
3.6011e+07,118051,1.20038e+07,2.41008e+28,3.87137e+25,3.25205e+11,0.075799,1.1244e+33,0.03468,0.00189804,1.35009e-05,2.57454e-49,2.81817e+15,1.94584e+16,5.23552e+12,2.22818e+16
3.6511e+07,117703,1.19879e+07,2.50748e+28,4.00887e+25,3.29678e+11,0.0759937,1.10946e+33,0.03468,0.00189785,1.34955e-05,2.57228e-49,2.80435e+15,1.93755e+16,5.20789e+12,2.2185e+16
3.7011e+07,117352,1.19718e+07,2.60727e+28,4.1486e+25,3.3415e+11,0.0761916,1.09451e+33,0.03468,0.00189771,1.34924e-05,2.57099e-49,2.79042e+15,1.92918e+16,5.18003e+12,2.20874e+16
3.7511e+07,116997,1.19556e+07,2.7095e+28,4.29051e+25,3.3862e+11,0.0763927,1.07958e+33,0.03468,0.00189737,1.34834e-05,2.56721e-49,2.77637e+15,1.92073e+16,5.15196e+12,2.19889e+16
3.8011e+07,116639,1.19391e+07,2.81416e+28,4.43457e+25,3.43089e+11,0.0765969,1.06465e+33,0.03468,0.00189681,1.34705e-05,2.56187e-49,2.76222e+15,1.91222e+16,5.12368e+12,2.18895e+16
3.8511e+07,116277,1.19225e+07,2.92129e+28,4.58074e+25,3.47555e+11,0.0768043,1.04975e+33,0.03468,0.00189699,1.34745e-05,2.56355e-49,2.74795e+15,1.90363e+16,5.09519e+12,2.17893e+16
3.9011e+07,115912,1.19057e+07,3.03089e+28,4.72898e+25,3.5202e+11,0.0770149,1.03486e+33,0.03468,0.00189684,1.34704e-05,2.56184e-49,2.73357e+15,1.89497e+16,5.0665e+12,2.16883e+16
3.9511e+07,115543,1.18887e+07,3.14298e+28,4.87924e+25,3.56483e+11,0.0772287,1.02001e+33,0.03468,0.0018966,1.3464e-05,2.55914e-49,2.7191e+15,1.88624e+16,5.03761e+12,2.15866e+16
4.0011e+07,115171,1.18715e+07,3.25758e+28,5.03148e+25,3.60944e+11,0.0774458,1.00519e+33,0.03468,0.00189644,1.34603e-05,2.55762e-49,2.70452e+15,1.87745e+16,5.00854e+12,2.1484e+16
4.0511e+07,114795,1.18541e+07,3.37469e+28,5.18565e+25,3.65404e+11,0.0776661,9.90409e+32,0.03468,0.00189604,1.34497e-05,2.5532e-49,2.68984e+15,1.86859e+16,4.97928e+12,2.13807e+16
4.1011e+07,114417,1.18366e+07,3.49434e+28,5.3417e+25,3.69861e+11,0.0778897,9.75671e+32,0.03468,0.00189538,1.34345e-05,2.5469e-49,2.67507e+15,1.85967e+16,4.94985e+12,2.12767e+16
4.1511e+07,114035,1.18188e+07,3.61653e+28,5.4996e+25,3.74317e+11,0.0781166,9.60981e+32,0.03468,0.00189559,1.34393e-05,2.54889e-49,2.6602e+15,1.85068e+16,4.92024e+12,2.11719e+16
4.2011e+07,113650,1.18009e+07,3.74129e+28,5.65928e+25,3.7877e+11,0.0783468,9.46344e+32,0.03468,0.00189541,1.34345e-05,2.54691e-49,2.64524e+15,1.84164e+16,4.89046e+12,2.10665e+16
4.2511e+07,113261,1.17828e+07,3.86861e+28,5.8207e+25,3.83222e+11,0.0785803,9.31764e+32,0.03468,0.00189513,1.3427e-05,2.54379e-49,2.63019e+15,1.83253e+16,4.86053e+12,2.09603e+16
4.3011e+07,112870,1.17645e+07,3.99852e+28,5.98382e+25,3.87671e+11,0.0788173,9.17246e+32,0.03468,0.00189495,1.34228e-05,2.54203e-49,2.61506e+15,1.82336e+16,4.83044e+12,2.08535e+16
4.3511e+07,112475,1.17461e+07,4.13103e+28,6.14856e+25,3.92119e+11,0.0790576,9.02794e+32,0.03468,0.00189449,1.34106e-05,2.53698e-49,2.59985e+15,1.81414e+16,4.8002e+12,2.0746e+16
4.4011e+07,112078,1.17274e+07,4.26613e+28,6.31489e+25,3.96564e+11,0.0793014,8.88413e+32,0.03468,0.00189372,1.33931e-05,2.52976e-49,2.58456e+15,1.80486e+16,4.76981e+12,2.06379e+16
4.4511e+07,111678,1.17086e+07,4.40385e+28,6.48276e+25,4.01008e+11,0.0795485,8.74106e+32,0.03468,0.00189398,1.33987e-05,2.53205e-49,2.56918e+15,1.79553e+16,4.73929e+12,2.05292e+16
4.5011e+07,111274,1.16896e+07,4.5442e+28,6.6521e+25,4.05449e+11,0.0797992,8.59878e+32,0.03468,0.00189377,1.33932e-05,2.52981e-49,2.55374e+15,1.78614e+16,4.70863e+12,2.04199e+16
4.5511e+07,110868,1.16705e+07,4.68717e+28,6.82286e+25,4.09888e+11,0.0800533,8.45732e+32,0.03468,0.00189345,1.33847e-05,2.52627e-49,2.53822e+15,1.77671e+16,4.67784e+12,2.031e+16
4.6011e+07,110459,1.16512e+07,4.83279e+28,6.99498e+25,4.14325e+11,0.080311,8.31672e+32,0.03468,0.00189324,1.33799e-05,2.52429e-49,2.52263e+15,1.76722e+16,4.64693e+12,2.01995e+16
4.6511e+07,110047,1.16317e+07,4.98105e+28,7.16842e+25,4.1876e+11,0.0805722,8.17702e+32,0.03468,0.00189272,1.33662e-05,2.51861e-49,2.50697e+15,1.75769e+16,4.61591e+12,2.00884e+16
4.7011e+07,109633,1.1612e+07,5.13197e+28,7.34311e+25,4.23193e+11,0.0808369,8.03825e+32,0.03468,0.00189186,1.33464e-05,2.51049e-49,2.49125e+15,1.7481e+16,4.58477e+12,1.99769e+16
4.7511e+07,109215,1.15922e+07,5.28555e+28,7.519e+25,4.27624e+11,0.0811052,7.90046e+32,0.03468,0.00189214,1.33527e-05,2.51307e-49,2.47547e+15,1.73848e+16,4.55353e+12,1.98648e+16
4.8011e+07,108795,1.15722e+07,5.44179e+28,7.69603e+25,4.32052e+11,0.0813772,7.76366e+32,0.03468,0.00189191,1.33466e-05,2.51057e-49,2.45963e+15,1.7288e+16,4.52219e+12,1.97522e+16
4.8511e+07,108373,1.1552e+07,5.60071e+28,7.87414e+25,4.36478e+11,0.0816528,7.62789e+32,0.03468,0.00189155,1.33371e-05,2.50662e-49,2.44373e+15,1.71909e+16,4.49075e+12,1.96391e+16
4.9011e+07,107948,1.15317e+07,5.76231e+28,8.05328e+25,4.40902e+11,0.081932,7.49319e+32,0.03468,0.00189132,1.33317e-05,2.50442e-49,2.42778e+15,1.70934e+16,4.45922e+12,1.95256e+16
4.9511e+07,107521,1.15112e+07,5.92658e+28,8.23338e+25,4.45324e+11,0.082215,7.35958e+32,0.03468,0.00189074,1.33165e-05,2.49814e-49,2.41178e+15,1.69954e+16,4.42761e+12,1.94116e+16
5.0011e+07,107091,1.14905e+07,6.09354e+28,8.41439e+25,4.49743e+11,0.0825016,7.2271e+32,0.03468,0.00188977,1.32945e-05,2.48914e-49,2.39573e+15,1.68971e+16,4.39592e+12,1.92972e+16
5.0511e+07,106658,1.14697e+07,6.26319e+28,8.59624e+25,4.5416e+11,0.082792,7.09576e+32,0.03468,0.00189009,1.33015e-05,2.492e-49,2.37963e+15,1.67984e+16,4.36415e+12,1.91824e+16
5.1011e+07,106224,1.14487e+07,6.43553e+28,8.77889e+25,4.58575e+11,0.0830862,6.9656e+32,0.03468,0.00188983,1.32948e-05,2.48925e-49,2.36349e+15,1.66993e+16,4.33232e+12,1.90671e+16
5.1511e+07,105787,1.14276e+07,6.61056e+28,8.96227e+25,4.62987e+11,0.0833843,6.83663e+32,0.03468,0.00188944,1.32842e-05,2.48491e-49,2.3473e+15,1.65999e+16,4.30042e+12,1.89515e+16
5.2011e+07,105347,1.14063e+07,6.78829e+28,9.14632e+25,4.67397e+11,0.0836861,6.7089e+32,0.03468,0.00188918,1.32783e-05,2.48249e-49,2.33108e+15,1.65002e+16,4.26847e+12,1.88356e+16
5.2511e+07,104906,1.13849e+07,6.96871e+28,9.33099e+25,4.71804e+11,0.0839918,6.5824e+32,0.03468,0.00188854,1.32615e-05,2.47562e-49,2.31483e+15,1.64002e+16,4.23646e+12,1.87192e+16
