X = 0.734
Y = 0.25
Z = 0.016
mu = 0.601142
Radius,Density,Temp,Mass,Lum,OptD,Kff,KH,Kes,PP,CNO,3a,Deg,Gas,Rad,TotPres
0,0,0,0,0,0,-nan,0,0.03468,0.00030523,1.43977e-09,4.23629e-58,0,0,0,0
1,133000,7.94328e+06,557109,170.047,46491.5,0.34956,2.90373e+31,0.03468,0.00030523,1.43977e-09,4.23629e-58,3.43772e+15,1.45068e+16,1.0039e+12,1.79455e+16
30001,133000,7.94328e+06,1.50434e+19,4.59174e+15,1.39479e+09,0.34956,2.90373e+31,0.03468,0.00030523,1.43977e-09,4.23629e-58,3.43772e+15,1.45068e+16,1.0039e+12,1.79455e+16
70001,133000,7.94328e+06,1.91097e+20,5.83287e+16,3.25445e+09,0.34956,2.90372e+31,0.03468,0.00030523,1.43977e-09,4.23629e-58,3.43772e+15,1.45068e+16,1.0039e+12,1.79455e+16
150001,133000,7.94327e+06,1.88028e+21,5.73918e+17,6.97377e+09,0.349561,2.90369e+31,0.03468,0.00030523,1.43977e-09,4.23629e-58,3.43771e+15,1.45068e+16,1.00389e+12,1.79455e+16
250001,132999,7.94326e+06,8.70489e+21,2.65698e+18,1.16229e+10,0.349563,2.90363e+31,0.03468,0.00030523,1.43977e-09,4.23629e-58,3.43768e+15,1.45067e+16,1.00389e+12,1.79453e+16
350001,132998,7.94323e+06,2.3886e+22,7.2906e+18,1.62721e+10,0.349565,2.90353e+31,0.03468,0.00030523,1.43977e-09,4.23629e-58,3.43764e+15,1.45065e+16,1.00387e+12,1.79452e+16
450001,132997,7.94319e+06,5.07662e+22,1.54948e+19,2.09212e+10,0.349568,2.9034e+31,0.03468,0.00030523,1.43977e-09,4.23628e-58,3.43758e+15,1.45063e+16,1.00385e+12,1.79449e+16
550001,132995,7.94315e+06,9.26875e+22,2.82894e+19,2.55703e+10,0.349572,2.90324e+31,0.03468,0.00030523,1.43977e-09,4.23628e-58,3.43752e+15,1.45061e+16,1.00383e+12,1.79446e+16
650001,132993,7.9431e+06,1.52992e+23,4.6694e+19,3.02195e+10,0.349576,2.90305e+31,0.03468,0.00030523,1.43977e-09,4.23628e-58,3.43743e+15,1.45057e+16,1.00381e+12,1.79442e+16
750001,132991,7.94304e+06,2.35022e+23,7.17279e+19,3.48686e+10,0.349582,2.90282e+31,0.03468,0.00030523,1.43977e-09,4.23628e-58,3.43734e+15,1.45054e+16,1.00378e+12,1.79437e+16
850001,132989,7.94297e+06,3.42118e+23,1.0441e+20,3.95177e+10,0.349588,2.90256e+31,0.03468,0.00030523,1.43977e-09,4.23628e-58,3.43723e+15,1.4505e+16,1.00374e+12,1.79432e+16
950001,132986,7.94289e+06,4.77622e+23,1.45759e+20,4.41668e+10,0.349595,2.90227e+31,0.03468,0.00030523,1.43977e-09,4.23628e-58,3.43711e+15,1.45045e+16,1.0037e+12,1.79426e+16
1.05e+06,132983,7.9428e+06,6.44874e+23,1.96792e+20,4.88159e+10,0.349602,2.90195e+31,0.03468,0.00030523,1.43977e-09,4.23627e-58,3.43697e+15,1.4504e+16,1.00366e+12,1.7942e+16
1.15e+06,132979,7.9427e+06,8.47215e+23,2.58527e+20,5.3465e+10,0.349611,2.9016e+31,0.03468,0.00030523,1.43977e-09,4.23627e-58,3.43682e+15,1.45035e+16,1.00361e+12,1.79413e+16
1.25e+06,132975,7.9426e+06,1.08798e+24,3.31982e+20,5.81141e+10,0.34962,2.90121e+31,0.03468,0.00030523,1.43976e-09,4.23625e-58,3.43666e+15,1.45029e+16,1.00355e+12,1.79405e+16
1.35e+06,132971,7.94249e+06,1.37052e+24,4.18172e+20,6.27632e+10,0.34963,2.90079e+31,0.03468,0.00030523,1.43976e-09,4.23624e-58,3.43648e+15,1.45022e+16,1.0035e+12,1.79397e+16
1.45e+06,132967,7.94236e+06,1.69817e+24,5.18112e+20,6.74123e+10,0.349641,2.90034e+31,0.03468,0.00030523,1.43976e-09,4.23624e-58,3.43629e+15,1.45015e+16,1.00343e+12,1.79388e+16
1.55e+06,132962,7.94223e+06,2.07425e+24,6.32818e+20,7.20613e+10,0.349652,2.89986e+31,0.03468,0.00030523,1.43976e-09,4.23623e-58,3.43609e+15,1.45008e+16,1.00337e+12,1.79378e+16
1.65e+06,132957,7.94209e+06,2.50212e+24,7.63304e+20,7.67104e+10,0.349664,2.89934e+31,0.03468,0.00030523,1.43976e-09,4.23621e-58,3.43587e+15,1.44999e+16,1.0033e+12,1.79368e+16
1.75e+06,132952,7.94194e+06,2.98511e+24,9.10583e+20,8.13594e+10,0.349678,2.89879e+31,0.03468,0.000305229,1.43975e-09,4.23619e-58,3.43564e+15,1.44991e+16,1.00322e+12,1.79357e+16
1.85e+06,132946,7.94179e+06,3.52655e+24,1.07567e+21,8.60084e+10,0.349691,2.89821e+31,0.03468,0.000305229,1.43974e-09,4.23612e-58,3.43539e+15,1.44982e+16,1.00314e+12,1.79346e+16
1.95e+06,132940,7.94162e+06,4.12978e+24,1.25957e+21,9.06574e+10,0.349706,2.8976e+31,0.03468,0.000305228,1.43973e-09,4.23607e-58,3.43514e+15,1.44972e+16,1.00306e+12,1.79334e+16
2.05e+06,132934,7.94144e+06,4.79813e+24,1.46329e+21,9.53064e+10,0.349721,2.89696e+31,0.03468,0.000305228,1.43974e-09,4.23607e-58,3.43486e+15,1.44962e+16,1.00297e+12,1.79321e+16
2.15e+06,132927,7.94126e+06,5.53494e+24,1.68785e+21,9.99554e+10,0.349737,2.89628e+31,0.03468,0.000305228,1.43973e-09,4.23603e-58,3.43458e+15,1.44952e+16,1.00288e+12,1.79307e+16
2.25e+06,132920,7.94107e+06,6.34354e+24,1.93426e+21,1.04604e+11,0.349754,2.89558e+31,0.03468,0.000305227,1.43972e-09,4.23597e-58,3.43428e+15,1.44941e+16,1.00278e+12,1.79293e+16
2.35e+06,132913,7.94087e+06,7.22726e+24,2.20351e+21,1.09253e+11,0.349772,2.89484e+31,0.03468,0.000305227,1.43971e-09,4.23592e-58,3.43397e+15,1.44929e+16,1.00268e+12,1.79279e+16
2.45e+06,132905,7.94066e+06,8.18943e+24,2.49662e+21,1.13902e+11,0.34979,2.89407e+31,0.03468,0.000305226,1.43969e-09,4.23578e-58,3.43364e+15,1.44917e+16,1.00257e+12,1.79263e+16
2.55e+06,132897,7.94044e+06,9.23337e+24,2.81459e+21,1.18551e+11,0.34981,2.89326e+31,0.03468,0.000305224,1.43966e-09,4.23562e-58,3.4333e+15,1.44904e+16,1.00246e+12,1.79247e+16
2.65e+06,132889,7.94021e+06,1.03624e+25,3.15843e+21,1.232e+11,0.34983,2.89243e+31,0.03468,0.000305224,1.43967e-09,4.23565e-58,3.43295e+15,1.44891e+16,1.00235e+12,1.79231e+16
2.75e+06,132881,7.93997e+06,1.15799e+25,3.52912e+21,1.27849e+11,0.34985,2.89156e+31,0.03468,0.000305224,1.43966e-09,4.23558e-58,3.43258e+15,1.44878e+16,1.00223e+12,1.79214e+16
2.85e+06,132872,7.93973e+06,1.28891e+25,3.92768e+21,1.32498e+11,0.349872,2.89066e+31,0.03468,0.000305223,1.43964e-09,4.23547e-58,3.43221e+15,1.44864e+16,1.0021e+12,1.79196e+16
2.95e+06,132863,7.93947e+06,1.42935e+25,4.35511e+21,1.37146e+11,0.349894,2.88973e+31,0.03468,0.000305222,1.43963e-09,4.2354e-58,3.43181e+15,1.44849e+16,1.00198e+12,1.79177e+16
3.05e+06,132853,7.93921e+06,1.57962e+25,4.81239e+21,1.41795e+11,0.349917,2.88877e+31,0.03468,0.00030522,1.4396e-09,4.2352e-58,3.43141e+15,1.44834e+16,1.00184e+12,1.79158e+16
3.15e+06,132844,7.93894e+06,1.74007e+25,5.30053e+21,1.46444e+11,0.349941,2.88778e+31,0.03468,0.000305218,1.43956e-09,4.23492e-58,3.43099e+15,1.44818e+16,1.00171e+12,1.79138e+16
3.25e+06,132833,7.93866e+06,1.91102e+25,5.82052e+21,1.51093e+11,0.349966,2.88675e+31,0.03468,0.000305218,1.43957e-09,4.235e-58,3.43055e+15,1.44802e+16,1.00157e+12,1.79118e+16
3.35e+06,132823,7.93837e+06,2.0928e+25,6.37334e+21,1.55741e+11,0.349991,2.88569e+31,0.03468,0.000305218,1.43955e-09,4.2349e-58,3.43011e+15,1.44786e+16,1.00142e+12,1.79097e+16
3.45e+06,132812,7.93808e+06,2.28576e+25,6.96e+21,1.6039e+11,0.350017,2.8846e+31,0.03468,0.000305216,1.43953e-09,4.23475e-58,3.42964e+15,1.44769e+16,1.00127e+12,1.79075e+16
3.55e+06,132801,7.93777e+06,2.49021e+25,7.58147e+21,1.65039e+11,0.350044,2.88348e+31,0.03468,0.000305215,1.43952e-09,4.23466e-58,3.42917e+15,1.44751e+16,1.00112e+12,1.79053e+16
3.65e+06,132790,7.93745e+06,2.7065e+25,8.23875e+21,1.69687e+11,0.350072,2.88233e+31,0.03468,0.000305213,1.43947e-09,4.23439e-58,3.42868e+15,1.44733e+16,1.00096e+12,1.7903e+16
3.75e+06,132778,7.93713e+06,2.93495e+25,8.93282e+21,1.74336e+11,0.3501,2.88115e+31,0.03468,0.000305209,1.43942e-09,4.23401e-58,3.42818e+15,1.44714e+16,1.00079e+12,1.79006e+16
3.85e+06,132766,7.9368e+06,3.17589e+25,9.66465e+21,1.78985e+11,0.35013,2.87993e+31,0.03468,0.00030521,1.43943e-09,4.23413e-58,3.42767e+15,1.44695e+16,1.00063e+12,1.78982e+16
3.95e+06,132754,7.93646e+06,3.42965e+25,1.04352e+22,1.83633e+11,0.35016,2.87868e+31,0.03468,0.000305209,1.43941e-09,4.234e-58,3.42714e+15,1.44676e+16,1.00045e+12,1.78957e+16
4.05e+06,132742,7.93611e+06,3.69657e+25,1.12456e+22,1.88282e+11,0.350191,2.87741e+31,0.03468,0.000305208,1.43938e-09,4.2338e-58,3.4266e+15,1.44656e+16,1.00028e+12,1.78932e+16
4.15e+06,132729,7.93575e+06,3.97698e+25,1.20966e+22,1.9293e+11,0.350222,2.8761e+31,0.03468,0.000305206,1.43937e-09,4.23369e-58,3.42604e+15,1.44635e+16,1.0001e+12,1.78905e+16
4.25e+06,132716,7.93538e+06,4.2712e+25,1.29893e+22,1.97579e+11,0.350254,2.87476e+31,0.03468,0.000305203,1.43931e-09,4.23335e-58,3.42548e+15,1.44614e+16,9.99911e+11,1.78879e+16
4.35e+06,132702,7.93501e+06,4.57956e+25,1.39246e+22,2.02227e+11,0.350288,2.87338e+31,0.03468,0.000305199,1.43924e-09,4.23288e-58,3.4249e+15,1.44592e+16,9.99722e+11,1.78851e+16
4.45e+06,132688,7.93462e+06,4.90241e+25,1.49036e+22,2.06875e+11,0.350321,2.87198e+31,0.03468,0.0003052,1.43926e-09,4.23303e-58,3.4243e+15,1.4457e+16,9.99528e+11,1.78823e+16
4.55e+06,132674,7.93423e+06,5.24005e+25,1.59272e+22,2.11524e+11,0.350356,2.87055e+31,0.03468,0.000305199,1.43924e-09,4.23287e-58,3.42369e+15,1.44548e+16,9.9933e+11,1.78795e+16
4.65e+06,132660,7.93383e+06,5.59283e+25,1.69963e+22,2.16172e+11,0.350392,2.86908e+31,0.03468,0.000305197,1.4392e-09,4.23263e-58,3.42307e+15,1.44525e+16,9.99127e+11,1.78765e+16
4.75e+06,132645,7.93341e+06,5.96108e+25,1.81119e+22,2.2082e+11,0.350428,2.86759e+31,0.03468,0.000305195,1.43918e-09,4.23249e-58,3.42244e+15,1.44501e+16,9.9892e+11,1.78735e+16
4.85e+06,132630,7.93299e+06,6.34512e+25,1.9275e+22,2.25469e+11,0.350465,2.86606e+31,0.03468,0.000305192,1.43912e-09,4.23209e-58,3.42179e+15,1.44477e+16,9.98709e+11,1.78705e+16
4.95e+06,132614,7.93257e+06,6.74528e+25,2.04865e+22,2.30117e+11,0.350503,2.8645e+31,0.03468,0.000305186,1.43903e-09,4.23152e-58,3.42113e+15,1.44452e+16,9.98493e+11,1.78674e+16
5.05e+06,132599,7.93213e+06,7.16189e+25,2.17474e+22,2.34765e+11,0.350541,2.86291e+31,0.03468,0.000305188,1.43906e-09,4.2317e-58,3.42045e+15,1.44427e+16,9.98273e+11,1.78642e+16
5.15e+06,132583,7.93168e+06,7.59528e+25,2.30586e+22,2.39413e+11,0.35058,2.86129e+31,0.03468,0.000305186,1.43903e-09,4.23152e-58,3.41976e+15,1.44402e+16,9.98049e+11,1.78609e+16
5.25e+06,132566,7.93123e+06,8.04577e+25,2.44211e+22,2.44061e+11,0.35062,2.85964e+31,0.03468,0.000305184,1.43898e-09,4.23123e-58,3.41906e+15,1.44376e+16,9.9782e+11,1.78576e+16
5.35e+06,132550,7.93077e+06,8.5137e+25,2.58359e+22,2.48709e+11,0.350661,2.85796e+31,0.03468,0.000305182,1.43896e-09,4.23107e-58,3.41835e+15,1.44349e+16,9.97587e+11,1.78543e+16
5.45e+06,132533,7.93029e+06,8.9994e+25,2.73038e+22,2.53357e+11,0.350703,2.85625e+31,0.03468,0.000305178,1.43889e-09,4.23061e-58,3.41762e+15,1.44322e+16,9.9735e+11,1.78508e+16
5.55e+06,132515,7.92981e+06,9.50318e+25,2.88258e+22,2.58005e+11,0.350745,2.8545e+31,0.03468,0.000305172,1.43878e-09,4.22994e-58,3.41688e+15,1.44295e+16,9.97108e+11,1.78473e+16
5.65e+06,132498,7.92932e+06,1.00254e+26,3.04029e+22,2.62653e+11,0.350789,2.85273e+31,0.03468,0.000305174,1.43882e-09,4.23015e-58,3.41612e+15,1.44267e+16,9.96862e+11,1.78438e+16
5.75e+06,132480,7.92883e+06,1.05663e+26,3.20359e+22,2.67301e+11,0.350833,2.85092e+31,0.03468,0.000305172,1.43878e-09,4.22994e-58,3.41535e+15,1.44238e+16,9.96612e+11,1.78402e+16
5.85e+06,132462,7.92832e+06,1.11263e+26,3.37259e+22,2.71949e+11,0.350877,2.84909e+31,0.03468,0.000305169,1.43873e-09,4.22961e-58,3.41457e+15,1.44209e+16,9.96357e+11,1.78365e+16
5.95e+06,132443,7.92781e+06,1.17057e+26,3.54737e+22,2.76597e+11,0.350923,2.84722e+31,0.03468,0.000305167,1.4387e-09,4.22943e-58,3.41378e+15,1.4418e+16,9.96098e+11,1.78327e+16
6.05e+06,132425,7.92728e+06,1.23049e+26,3.72803e+22,2.81244e+11,0.350969,2.84533e+31,0.03468,0.000305163,1.43862e-09,4.2289e-58,3.41297e+15,1.4415e+16,9.95835e+11,1.78289e+16
6.15e+06,132405,7.92675e+06,1.29241e+26,3.91465e+22,2.85892e+11,0.351016,2.8434e+31,0.03468,0.000305155,1.4385e-09,4.22814e-58,3.41215e+15,1.44119e+16,9.95567e+11,1.7825e+16
6.25e+06,132386,7.92621e+06,1.35636e+26,4.10734e+22,2.9054e+11,0.351064,2.84145e+31,0.03468,0.000305157,1.43854e-09,4.22838e-58,3.41131e+15,1.44088e+16,9.95295e+11,1.78211e+16
6.35e+06,132366,7.92566e+06,1.42239e+26,4.30618e+22,2.95187e+11,0.351113,2.83946e+31,0.03468,0.000305155,1.4385e-09,4.22814e-58,3.41047e+15,1.44057e+16,9.95019e+11,1.78171e+16
6.45e+06,132346,7.9251e+06,1.49051e+26,4.51126e+22,2.99835e+11,0.351162,2.83745e+31,0.03468,0.000305152,1.43845e-09,4.22777e-58,3.40961e+15,1.44025e+16,9.94738e+11,1.78131e+16
6.55e+06,132326,7.92453e+06,1.56078e+26,4.72268e+22,3.04482e+11,0.351212,2.8354e+31,0.03468,0.00030515,1.43841e-09,4.22756e-58,3.40873e+15,1.43992e+16,9.94453e+11,1.78089e+16
6.65e+06,132305,7.92395e+06,1.63321e+26,4.94052e+22,3.0913e+11,0.351263,2.83332e+31,0.03468,0.000305145,1.43832e-09,4.22696e-58,3.40784e+15,1.43959e+16,9.94164e+11,1.78048e+16
6.75e+06,132284,7.92337e+06,1.70784e+26,5.16487e+22,3.13777e+11,0.351315,2.83122e+31,0.03468,0.000305136,1.43819e-09,4.22611e-58,3.40694e+15,1.43926e+16,9.93871e+11,1.78005e+16
6.85e+06,132263,7.92278e+06,1.7847e+26,5.39583e+22,3.18424e+11,0.351368,2.82908e+31,0.03468,0.000305139,1.43823e-09,4.22638e-58,3.40603e+15,1.43892e+16,9.93573e+11,1.77962e+16
6.95e+06,132241,7.92217e+06,1.86382e+26,5.63349e+22,3.23072e+11,0.351421,2.82692e+31,0.03468,0.000305137,1.43819e-09,4.22612e-58,3.4051e+15,1.43857e+16,9.93271e+11,1.77918e+16
7.05e+06,132219,7.92156e+06,1.94525e+26,5.87792e+22,3.27719e+11,0.351475,2.82472e+31,0.03468,0.000305133,1.43813e-09,4.2257e-58,3.40416e+15,1.43822e+16,9.92965e+11,1.77874e+16
7.15e+06,132197,7.92094e+06,2.029e+26,6.12923e+22,3.32366e+11,0.35153,2.8225e+31,0.03468,0.000305131,1.43809e-09,4.22547e-58,3.40321e+15,1.43787e+16,9.92654e+11,1.77829e+16
7.25e+06,132175,7.92032e+06,2.11511e+26,6.3875e+22,3.37013e+11,0.351585,2.82024e+31,0.03468,0.000305125,1.43799e-09,4.2248e-58,3.40224e+15,1.43751e+16,9.92339e+11,1.77783e+16
7.35e+06,132152,7.91968e+06,2.20362e+26,6.65282e+22,3.4166e+11,0.351642,2.81796e+31,0.03468,0.000305115,1.43784e-09,4.22386e-58,3.40126e+15,1.43715e+16,9.9202e+11,1.77737e+16
7.45e+06,132129,7.91903e+06,2.29455e+26,6.92527e+22,3.46307e+11,0.351699,2.81565e+31,0.03468,0.000305119,1.43789e-09,4.22416e-58,3.40027e+15,1.43678e+16,9.91697e+11,1.77691e+16
7.55e+06,132105,7.91838e+06,2.38794e+26,7.20494e+22,3.50954e+11,0.351757,2.81331e+31,0.03468,0.000305116,1.43784e-09,4.22387e-58,3.39927e+15,1.43641e+16,9.91369e+11,1.77643e+16
7.65e+06,132082,7.91772e+06,2.48382e+26,7.49193e+22,3.55601e+11,0.351816,2.81093e+31,0.03468,0.000305112,1.43777e-09,4.22341e-58,3.39825e+15,1.43603e+16,9.91037e+11,1.77595e+16
7.75e+06,132057,7.91705e+06,2.58222e+26,7.78631e+22,3.60248e+11,0.351875,2.80853e+31,0.03468,0.00030511,1.43773e-09,4.22315e-58,3.39722e+15,1.43564e+16,9.90701e+11,1.77546e+16
7.85e+06,132033,7.91637e+06,2.68318e+26,8.08817e+22,3.64895e+11,0.351936,2.8061e+31,0.03468,0.000305103,1.43762e-09,4.22242e-58,3.39617e+15,1.43526e+16,9.90361e+11,1.77497e+16
7.95e+06,132008,7.91568e+06,2.78672e+26,8.3976e+22,3.69541e+11,0.351997,2.80365e+31,0.03468,0.000305093,1.43745e-09,4.22138e-58,3.39511e+15,1.43486e+16,9.90016e+11,1.77447e+16
8.05e+06,131983,7.91498e+06,2.89288e+26,8.71468e+22,3.74188e+11,0.352059,2.80116e+31,0.03468,0.000305096,1.43751e-09,4.22171e-58,3.39404e+15,1.43446e+16,9.89667e+11,1.77397e+16
8.15e+06,131958,7.91427e+06,3.00169e+26,9.0395e+22,3.78835e+11,0.352121,2.79864e+31,0.03468,0.000305093,1.43746e-09,4.22139e-58,3.39296e+15,1.43406e+16,9.89314e+11,1.77346e+16
8.25e+06,131933,7.91356e+06,3.11318e+26,9.37215e+22,3.83481e+11,0.352185,2.7961e+31,0.03468,0.000305089,1.43738e-09,4.22089e-58,3.39186e+15,1.43365e+16,9.88957e+11,1.77294e+16
8.35e+06,131907,7.91284e+06,3.22738e+26,9.71269e+22,3.88128e+11,0.352249,2.79352e+31,0.03468,0.000305086,1.43733e-09,4.22061e-58,3.39075e+15,1.43324e+16,9.88596e+11,1.77242e+16
8.45e+06,131880,7.9121e+06,3.34433e+26,1.00612e+23,3.92774e+11,0.352314,2.79092e+31,0.03468,0.000305079,1.43721e-09,4.21982e-58,3.38963e+15,1.43282e+16,9.8823e+11,1.77189e+16
8.55e+06,131854,7.91136e+06,3.46406e+26,1.04178e+23,3.9742e+11,0.35238,2.78829e+31,0.03468,0.000305068,1.43703e-09,4.21868e-58,3.38849e+15,1.4324e+16,9.8786e+11,1.77135e+16
8.65e+06,131827,7.91061e+06,3.58659e+26,1.07826e+23,4.02067e+11,0.352447,2.78563e+31,0.03468,0.000305071,1.43709e-09,4.21904e-58,3.38734e+15,1.43197e+16,9.87486e+11,1.77081e+16
8.75e+06,131800,7.90986e+06,3.71197e+26,1.11556e+23,4.06713e+11,0.352514,2.78295e+31,0.03468,0.000305068,1.43704e-09,4.2187e-58,3.38618e+15,1.43154e+16,9.87107e+11,1.77026e+16
8.85e+06,131773,7.90909e+06,3.84022e+26,1.15369e+23,4.11359e+11,0.352582,2.78023e+31,0.03468,0.000305064,1.43695e-09,4.21815e-58,3.38501e+15,1.43111e+16,9.86725e+11,1.76971e+16
8.95e+06,131745,7.90831e+06,3.97137e+26,1.19266e+23,4.16005e+11,0.352651,2.77749e+31,0.03468,0.000305061,1.4369e-09,4.21785e-58,3.38382e+15,1.43066e+16,9.86338e+11,1.76915e+16
9.05e+06,131717,7.90753e+06,4.10546e+26,1.23249e+23,4.20651e+11,0.352721,2.77472e+31,0.03468,0.000305053,1.43677e-09,4.21699e-58,3.38262e+15,1.43022e+16,9.85947e+11,1.76858e+16
9.15e+06,131688,7.90674e+06,4.24251e+26,1.27316e+23,4.25297e+11,0.352792,2.77192e+31,0.03468,0.000305041,1.43658e-09,4.21576e-58,3.38141e+15,1.42977e+16,9.85552e+11,1.76801e+16
9.25e+06,131660,7.90594e+06,4.38256e+26,1.3147e+23,4.29943e+11,0.352863,2.76909e+31,0.03468,0.000305045,1.43664e-09,4.21615e-58,3.38018e+15,1.42931e+16,9.85153e+11,1.76743e+16
9.35e+06,131631,7.90513e+06,4.52565e+26,1.35711e+23,4.34589e+11,0.352935,2.76623e+31,0.03468,0.000305042,1.43658e-09,4.21578e-58,3.37894e+15,1.42885e+16,9.8475e+11,1.76684e+16
9.45e+06,131601,7.90431e+06,4.67179e+26,1.40041e+23,4.39234e+11,0.353008,2.76335e+31,0.03468,0.000305036,1.43649e-09,4.21519e-58,3.37769e+15,1.42839e+16,9.84342e+11,1.76625e+16
9.55e+06,131572,7.90348e+06,4.82103e+26,1.44459e+23,4.4388e+11,0.353082,2.76044e+31,0.03468,0.000305033,1.43644e-09,4.21486e-58,3.37642e+15,1.42791e+16,9.8393e+11,1.76566e+16
9.65e+06,131542,7.90265e+06,4.97339e+26,1.48966e+23,4.48525e+11,0.353156,2.7575e+31,0.03468,0.000305025,1.4363e-09,4.21394e-58,3.37515e+15,1.42744e+16,9.83514e+11,1.76505e+16
9.75e+06,131512,7.9018e+06,5.1289e+26,1.53564e+23,4.53171e+11,0.353232,2.75454e+31,0.03468,0.000305012,1.43609e-09,4.21262e-58,3.37386e+15,1.42696e+16,9.83094e+11,1.76444e+16
9.85e+06,131481,7.90095e+06,5.2876e+26,1.58253e+23,4.57816e+11,0.353308,2.75155e+31,0.03468,0.000305016,1.43616e-09,4.21304e-58,3.37255e+15,1.42648e+16,9.8267e+11,1.76383e+16
9.95e+06,131451,7.90009e+06,5.44952e+26,1.63034e+23,4.62462e+11,0.353384,2.74853e+31,0.03468,0.000305013,1.43609e-09,4.21264e-58,3.37124e+15,1.42599e+16,9.82242e+11,1.76321e+16
1.005e+07,131420,7.89922e+06,5.61469e+26,1.67908e+23,4.67107e+11,0.353462,2.74548e+31,0.03468,0.000305007,1.436e-09,4.212e-58,3.36991e+15,1.42549e+16,9.8181e+11,1.76258e+16
1.015e+07,131388,7.89834e+06,5.78314e+26,1.72875e+23,4.71752e+11,0.353541,2.74241e+31,0.03468,0.000305004,1.43594e-09,4.21166e-58,3.36857e+15,1.42499e+16,9.81373e+11,1.76195e+16
1.025e+07,131356,7.89746e+06,5.9549e+26,1.77936e+23,4.76397e+11,0.35362,2.73931e+31,0.03468,0.000304995,1.43579e-09,4.21067e-58,3.36721e+15,1.42449e+16,9.80932e+11,1.76131e+16
1.035e+07,131324,7.89656e+06,6.13e+26,1.83092e+23,4.81042e+11,0.3537,2.73618e+31,0.03468,0.000304981,1.43557e-09,4.20925e-58,3.36585e+15,1.42398e+16,9.80488e+11,1.76066e+16
1.045e+07,131292,7.89566e+06,6.30847e+26,1.88344e+23,4.85687e+11,0.353781,2.73303e+31,0.03468,0.000304985,1.43564e-09,4.2097e-58,3.36447e+15,1.42347e+16,9.80039e+11,1.76001e+16
1.055e+07,131260,7.89474e+06,6.49035e+26,1.93692e+23,4.90332e+11,0.353862,2.72985e+31,0.03468,0.000304982,1.43557e-09,4.20927e-58,3.36308e+15,1.42295e+16,9.79586e+11,1.75936e+16
1.065e+07,131227,7.89382e+06,6.67566e+26,1.99137e+23,4.94977e+11,0.353945,2.72664e+31,0.03468,0.000304976,1.43547e-09,4.2086e-58,3.36167e+15,1.42243e+16,9.79129e+11,1.75869e+16
1.075e+07,131193,7.89289e+06,6.86444e+26,2.0468e+23,4.99622e+11,0.354028,2.72341e+31,0.03468,0.000304972,1.43541e-09,4.20823e-58,3.36025e+15,1.4219e+16,9.78668e+11,1.75802e+16
1.085e+07,131160,7.89196e+06,7.05671e+26,2.10322e+23,5.04266e+11,0.354112,2.72015e+31,0.03468,0.000304963,1.43524e-09,4.20717e-58,3.35882e+15,1.42137e+16,9.78202e+11,1.75735e+16
1.095e+07,131126,7.89101e+06,7.25251e+26,2.16062e+23,5.08911e+11,0.354197,2.71686e+31,0.03468,0.000304947,1.43501e-09,4.20567e-58,3.35738e+15,1.42083e+16,9.77733e+11,1.75667e+16
1.105e+07,131092,7.89005e+06,7.45187e+26,2.21903e+23,5.13555e+11,0.354282,2.71355e+31,0.03468,0.000304952,1.43508e-09,4.20615e-58,3.35593e+15,1.42029e+16,9.7726e+11,1.75598e+16
