X = 0.734
Y = 0.25
Z = 0.016
mu = 0.601142
Radius,Density,Temp,Mass,Lum,OptD,Kff,KH,Kes,PP,CNO,3a,Deg,Gas,Rad,TotPres
0,0,0,0,0,0,-nan,0,0.03468,0.000211793,2.63873e-10,1.00106e-59,0,0,0,0
1,129000,7.30527e+06,540354,114.443,59169.9,0.458682,1.34602e+31,0.03468,0.000211793,2.63873e-10,1.00106e-59,3.26714e+15,1.29404e+16,7.18184e+11,1.62082e+16
30001,129000,7.30527e+06,1.4591e+19,3.09027e+15,1.77516e+09,0.458682,1.34602e+31,0.03468,0.000211793,2.63873e-10,1.00106e-59,3.26714e+15,1.29404e+16,7.18184e+11,1.62082e+16
70001,129000,7.30527e+06,1.85349e+20,3.92556e+16,4.14195e+09,0.458682,1.34602e+31,0.03468,0.000211793,2.63873e-10,1.00106e-59,3.26714e+15,1.29404e+16,7.18183e+11,1.62082e+16
150001,129000,7.30526e+06,1.82373e+21,3.86251e+17,8.87555e+09,0.458683,1.34601e+31,0.03468,0.000211793,2.63873e-10,1.00106e-59,3.26713e+15,1.29403e+16,7.1818e+11,1.62082e+16
250001,128999,7.30525e+06,8.44309e+21,1.78816e+18,1.47925e+10,0.458685,1.34597e+31,0.03468,0.000211793,2.63873e-10,1.00106e-59,3.2671e+15,1.29402e+16,7.18174e+11,1.6208e+16
350001,128998,7.30522e+06,2.31677e+22,4.90662e+18,2.07095e+10,0.458688,1.34593e+31,0.03468,0.000211793,2.63873e-10,1.00106e-59,3.26706e+15,1.29401e+16,7.18164e+11,1.62079e+16
450001,128997,7.30519e+06,4.92393e+22,1.04281e+19,2.66265e+10,0.458692,1.34586e+31,0.03468,0.000211793,2.63873e-10,1.00106e-59,3.267e+15,1.29399e+16,7.18151e+11,1.62076e+16
550001,128995,7.30515e+06,8.98999e+22,1.90389e+19,3.25435e+10,0.458697,1.34579e+31,0.03468,0.000211793,2.63873e-10,1.00106e-59,3.26694e+15,1.29397e+16,7.18134e+11,1.62073e+16
650001,128993,7.30509e+06,1.48391e+23,3.14253e+19,3.84605e+10,0.458704,1.34569e+31,0.03468,0.000211793,2.63873e-10,1.00106e-59,3.26686e+15,1.29394e+16,7.18114e+11,1.62069e+16
750001,128991,7.30504e+06,2.27953e+23,4.82732e+19,4.43774e+10,0.458711,1.34558e+31,0.03468,0.000211793,2.63872e-10,1.00106e-59,3.26676e+15,1.2939e+16,7.18091e+11,1.62065e+16
850001,128988,7.30497e+06,3.31828e+23,7.02682e+19,5.02944e+10,0.458719,1.34546e+31,0.03468,0.000211793,2.63872e-10,1.00106e-59,3.26665e+15,1.29387e+16,7.18065e+11,1.6206e+16
950001,128986,7.30489e+06,4.63256e+23,9.80957e+19,5.62113e+10,0.458729,1.34532e+31,0.03468,0.000211793,2.63872e-10,1.00106e-59,3.26653e+15,1.29383e+16,7.18035e+11,1.62055e+16
1.05e+06,128982,7.30481e+06,6.25478e+23,1.32441e+20,6.21283e+10,0.458739,1.34516e+31,0.03468,0.000211793,2.63872e-10,1.00106e-59,3.2664e+15,1.29378e+16,7.18002e+11,1.62049e+16
1.15e+06,128979,7.30472e+06,8.21733e+23,1.73989e+20,6.80452e+10,0.458751,1.34499e+31,0.03468,0.000211793,2.63872e-10,1.00106e-59,3.26625e+15,1.29373e+16,7.17966e+11,1.62042e+16
1.25e+06,128975,7.30462e+06,1.05526e+24,2.23423e+20,7.39621e+10,0.458764,1.34481e+31,0.03468,0.000211793,2.63872e-10,1.00105e-59,3.26609e+15,1.29367e+16,7.17926e+11,1.62035e+16
1.35e+06,128971,7.30451e+06,1.3293e+24,2.81427e+20,7.9879e+10,0.458777,1.3446e+31,0.03468,0.000211792,2.63871e-10,1.00105e-59,3.26592e+15,1.29361e+16,7.17884e+11,1.62027e+16
1.45e+06,128967,7.30439e+06,1.64708e+24,3.48686e+20,8.57959e+10,0.458792,1.34439e+31,0.03468,0.000211792,2.63871e-10,1.00105e-59,3.26573e+15,1.29355e+16,7.17837e+11,1.62019e+16
1.55e+06,128962,7.30426e+06,2.01186e+24,4.25881e+20,9.17128e+10,0.458808,1.34415e+31,0.03468,0.000211792,2.63871e-10,1.00105e-59,3.26553e+15,1.29348e+16,7.17788e+11,1.6201e+16
1.65e+06,128957,7.30413e+06,2.42685e+24,5.13695e+20,9.76297e+10,0.458825,1.34391e+31,0.03468,0.000211792,2.6387e-10,1.00104e-59,3.26531e+15,1.2934e+16,7.17735e+11,1.62e+16
1.75e+06,128951,7.30399e+06,2.89531e+24,6.12809e+20,1.03547e+11,0.458843,1.34364e+31,0.03468,0.000211792,2.6387e-10,1.00104e-59,3.26509e+15,1.29332e+16,7.17679e+11,1.6199e+16
1.85e+06,128946,7.30384e+06,3.42046e+24,7.23905e+20,1.09463e+11,0.458862,1.34336e+31,0.03468,0.000211792,2.63868e-10,1.00102e-59,3.26485e+15,1.29324e+16,7.1762e+11,1.61979e+16
1.95e+06,128940,7.30368e+06,4.00554e+24,8.47663e+20,1.1538e+11,0.458882,1.34307e+31,0.03468,0.000211791,2.63866e-10,1.00101e-59,3.26459e+15,1.29315e+16,7.17557e+11,1.61968e+16
2.05e+06,128933,7.30351e+06,4.65378e+24,9.84763e+20,1.21297e+11,0.458903,1.34276e+31,0.03468,0.000211791,2.63866e-10,1.00101e-59,3.26433e+15,1.29306e+16,7.17491e+11,1.61956e+16
2.15e+06,128927,7.30333e+06,5.36842e+24,1.13588e+21,1.27214e+11,0.458925,1.34243e+31,0.03468,0.000211791,2.63865e-10,1.001e-59,3.26404e+15,1.29296e+16,7.17422e+11,1.61943e+16
2.25e+06,128920,7.30315e+06,6.15268e+24,1.3017e+21,1.33131e+11,0.458948,1.34209e+31,0.03468,0.000211791,2.63863e-10,1.00098e-59,3.26375e+15,1.29286e+16,7.1735e+11,1.6193e+16
2.35e+06,128912,7.30296e+06,7.0098e+24,1.48289e+21,1.39047e+11,0.458972,1.34173e+31,0.03468,0.00021179,2.63862e-10,1.00097e-59,3.26344e+15,1.29275e+16,7.17274e+11,1.61916e+16
2.45e+06,128905,7.30276e+06,7.94301e+24,1.68014e+21,1.44964e+11,0.458998,1.34136e+31,0.03468,0.000211789,2.63858e-10,1.00094e-59,3.26312e+15,1.29264e+16,7.17195e+11,1.61902e+16
2.55e+06,128897,7.30255e+06,8.95553e+24,1.89411e+21,1.50881e+11,0.459024,1.34097e+31,0.03468,0.000211788,2.63853e-10,1.0009e-59,3.26279e+15,1.29252e+16,7.17113e+11,1.61887e+16
2.65e+06,128889,7.30233e+06,1.00506e+25,2.12549e+21,1.56797e+11,0.459052,1.34057e+31,0.03468,0.000211789,2.63854e-10,1.00091e-59,3.26244e+15,1.2924e+16,7.17027e+11,1.61871e+16
2.75e+06,128880,7.3021e+06,1.12314e+25,2.37494e+21,1.62714e+11,0.45908,1.34015e+31,0.03468,0.000211788,2.63852e-10,1.00089e-59,3.26208e+15,1.29227e+16,7.16938e+11,1.61855e+16
2.85e+06,128871,7.30187e+06,1.25012e+25,2.64313e+21,1.68631e+11,0.45911,1.33972e+31,0.03468,0.000211787,2.63849e-10,1.00086e-59,3.26171e+15,1.29214e+16,7.16846e+11,1.61839e+16
2.95e+06,128862,7.30162e+06,1.38633e+25,2.93075e+21,1.74547e+11,0.45914,1.33927e+31,0.03468,0.000211787,2.63847e-10,1.00085e-59,3.26132e+15,1.29201e+16,7.16751e+11,1.61821e+16
3.05e+06,128853,7.30137e+06,1.53208e+25,3.23846e+21,1.80464e+11,0.459172,1.3388e+31,0.03468,0.000211786,2.6384e-10,1.00079e-59,3.26092e+15,1.29187e+16,7.16652e+11,1.61803e+16
3.15e+06,128843,7.30111e+06,1.68769e+25,3.56692e+21,1.8638e+11,0.459205,1.33833e+31,0.03468,0.000211784,2.63832e-10,1.00073e-59,3.26051e+15,1.29172e+16,7.1655e+11,1.61785e+16
3.25e+06,128833,7.30084e+06,1.85349e+25,3.91681e+21,1.92297e+11,0.459238,1.33783e+31,0.03468,0.000211784,2.63835e-10,1.00075e-59,3.26008e+15,1.29158e+16,7.16445e+11,1.61765e+16
3.35e+06,128822,7.30057e+06,2.0298e+25,4.2888e+21,1.98213e+11,0.459273,1.33732e+31,0.03468,0.000211784,2.63832e-10,1.00072e-59,3.25964e+15,1.29142e+16,7.16336e+11,1.61746e+16
3.45e+06,128811,7.30028e+06,2.21695e+25,4.68354e+21,2.0413e+11,0.459309,1.33679e+31,0.03468,0.000211783,2.63827e-10,1.00068e-59,3.25919e+15,1.29126e+16,7.16224e+11,1.61725e+16
3.55e+06,128800,7.29999e+06,2.41524e+25,5.10171e+21,2.10046e+11,0.459346,1.33625e+31,0.03468,0.000211782,2.63824e-10,1.00066e-59,3.25872e+15,1.2911e+16,7.16109e+11,1.61704e+16
3.65e+06,128789,7.29969e+06,2.62501e+25,5.54396e+21,2.15963e+11,0.459384,1.3357e+31,0.03468,0.00021178,2.63816e-10,1.0006e-59,3.25824e+15,1.29093e+16,7.15991e+11,1.61683e+16
3.75e+06,128777,7.29938e+06,2.84657e+25,6.01096e+21,2.21879e+11,0.459423,1.33513e+31,0.03468,0.000211778,2.63805e-10,1.0005e-59,3.25775e+15,1.29076e+16,7.15869e+11,1.61661e+16
3.85e+06,128765,7.29906e+06,3.08026e+25,6.50337e+21,2.27795e+11,0.459463,1.33454e+31,0.03468,0.000211778,2.63809e-10,1.00053e-59,3.25724e+15,1.29058e+16,7.15744e+11,1.61638e+16
3.95e+06,128753,7.29873e+06,3.32637e+25,7.02184e+21,2.33712e+11,0.459505,1.33394e+31,0.03468,0.000211778,2.63805e-10,1.0005e-59,3.25672e+15,1.2904e+16,7.15616e+11,1.61615e+16
4.05e+06,128740,7.2984e+06,3.58525e+25,7.56703e+21,2.39628e+11,0.459547,1.33332e+31,0.03468,0.000211776,2.63799e-10,1.00045e-59,3.25619e+15,1.29022e+16,7.15485e+11,1.61591e+16
4.15e+06,128727,7.29805e+06,3.8572e+25,8.13961e+21,2.45544e+11,0.45959,1.33269e+31,0.03468,0.000211776,2.63796e-10,1.00042e-59,3.25564e+15,1.29003e+16,7.1535e+11,1.61566e+16
4.25e+06,128714,7.2977e+06,4.14255e+25,8.74022e+21,2.5146e+11,0.459635,1.33205e+31,0.03468,0.000211773,2.63786e-10,1.00034e-59,3.25508e+15,1.28983e+16,7.15212e+11,1.61541e+16
4.35e+06,128701,7.29734e+06,4.44162e+25,9.36951e+21,2.57376e+11,0.45968,1.33138e+31,0.03468,0.00021177,2.63772e-10,1.00022e-59,3.25451e+15,1.28963e+16,7.15071e+11,1.61515e+16
4.45e+06,128687,7.29697e+06,4.75472e+25,1.00281e+22,2.63293e+11,0.459727,1.33071e+31,0.03468,0.000211771,2.63776e-10,1.00026e-59,3.25393e+15,1.28943e+16,7.14927e+11,1.61489e+16
4.55e+06,128673,7.2966e+06,5.08219e+25,1.07168e+22,2.69209e+11,0.459774,1.33001e+31,0.03468,0.00021177,2.63772e-10,1.00022e-59,3.25333e+15,1.28922e+16,7.14779e+11,1.61462e+16
4.65e+06,128658,7.29621e+06,5.42433e+25,1.1436e+22,2.75125e+11,0.459823,1.32931e+31,0.03468,0.000211769,2.63764e-10,1.00016e-59,3.25272e+15,1.28901e+16,7.14628e+11,1.61435e+16
4.75e+06,128643,7.29582e+06,5.78147e+25,1.21865e+22,2.81041e+11,0.459872,1.32859e+31,0.03468,0.000211768,2.6376e-10,1.00013e-59,3.25209e+15,1.28879e+16,7.14474e+11,1.61407e+16
4.85e+06,128628,7.29542e+06,6.15392e+25,1.2969e+22,2.86957e+11,0.459923,1.32785e+31,0.03468,0.000211765,2.63748e-10,1.00003e-59,3.25145e+15,1.28856e+16,7.14316e+11,1.61378e+16
4.95e+06,128613,7.29501e+06,6.542e+25,1.3784e+22,2.92872e+11,0.459975,1.3271e+31,0.03468,0.000211761,2.63732e-10,9.99891e-60,3.2508e+15,1.28834e+16,7.14156e+11,1.61349e+16
5.05e+06,128597,7.29459e+06,6.94604e+25,1.46322e+22,2.98788e+11,0.460028,1.32633e+31,0.03468,0.000211762,2.63737e-10,9.99935e-60,3.25014e+15,1.28811e+16,7.13992e+11,1.61319e+16
5.15e+06,128581,7.29416e+06,7.36635e+25,1.55143e+22,3.04704e+11,0.460082,1.32555e+31,0.03468,0.000211761,2.63732e-10,9.9989e-60,3.24946e+15,1.28787e+16,7.13825e+11,1.61289e+16
5.25e+06,128564,7.29373e+06,7.80325e+25,1.64308e+22,3.1062e+11,0.460137,1.32475e+31,0.03468,0.000211759,2.63723e-10,9.9982e-60,3.24877e+15,1.28763e+16,7.13654e+11,1.61258e+16
5.35e+06,128548,7.29328e+06,8.25705e+25,1.73825e+22,3.16536e+11,0.460193,1.32394e+31,0.03468,0.000211758,2.63718e-10,9.9978e-60,3.24807e+15,1.28738e+16,7.13481e+11,1.61226e+16
5.45e+06,128531,7.29283e+06,8.72808e+25,1.83699e+22,3.22451e+11,0.46025,1.32312e+31,0.03468,0.000211755,2.63705e-10,9.99666e-60,3.24735e+15,1.28713e+16,7.13304e+11,1.61194e+16
5.55e+06,128513,7.29237e+06,9.21665e+25,1.93937e+22,3.28367e+11,0.460308,1.32228e+31,0.03468,0.00021175,2.63685e-10,9.99502e-60,3.24662e+15,1.28688e+16,7.13124e+11,1.61161e+16
5.65e+06,128496,7.2919e+06,9.72307e+25,2.04545e+22,3.34282e+11,0.460368,1.32142e+31,0.03468,0.000211752,2.63691e-10,9.99554e-60,3.24588e+15,1.28662e+16,7.12941e+11,1.61128e+16
5.75e+06,128478,7.29142e+06,1.02477e+26,2.15529e+22,3.40198e+11,0.460428,1.32055e+31,0.03468,0.000211751,2.63685e-10,9.99502e-60,3.24512e+15,1.28635e+16,7.12754e+11,1.61094e+16
5.85e+06,128459,7.29094e+06,1.07908e+26,2.26896e+22,3.46113e+11,0.460489,1.31967e+31,0.03468,0.000211749,2.63675e-10,9.99421e-60,3.24435e+15,1.28609e+16,7.12564e+11,1.61059e+16
5.95e+06,128441,7.29045e+06,1.13527e+26,2.38651e+22,3.52029e+11,0.460552,1.31877e+31,0.03468,0.000211747,2.6367e-10,9.99376e-60,3.24357e+15,1.28581e+16,7.12372e+11,1.61024e+16
6.05e+06,128422,7.28994e+06,1.19337e+26,2.50802e+22,3.57944e+11,0.460615,1.31785e+31,0.03468,0.000211744,2.63654e-10,9.99245e-60,3.24277e+15,1.28553e+16,7.12175e+11,1.60988e+16
6.15e+06,128403,7.28943e+06,1.25342e+26,2.63354e+22,3.6386e+11,0.46068,1.31693e+31,0.03468,0.000211738,2.63631e-10,9.99058e-60,3.24197e+15,1.28525e+16,7.11976e+11,1.60952e+16
6.25e+06,128383,7.28892e+06,1.31544e+26,2.76313e+22,3.69775e+11,0.460746,1.31598e+31,0.03468,0.00021174,2.63638e-10,9.99117e-60,3.24114e+15,1.28497e+16,7.11773e+11,1.60915e+16
6.35e+06,128363,7.28839e+06,1.37947e+26,2.89686e+22,3.7569e+11,0.460813,1.31503e+31,0.03468,0.000211739,2.63631e-10,9.99059e-60,3.24031e+15,1.28467e+16,7.11568e+11,1.60878e+16
6.45e+06,128343,7.28785e+06,1.44553e+26,3.03478e+22,3.81605e+11,0.46088,1.31405e+31,0.03468,0.000211736,2.6362e-10,9.98967e-60,3.23946e+15,1.28438e+16,7.11359e+11,1.6084e+16
6.55e+06,128323,7.28731e+06,1.51367e+26,3.17696e+22,3.8752e+11,0.460949,1.31307e+31,0.03468,0.000211735,2.63614e-10,9.98916e-60,3.2386e+15,1.28408e+16,7.11146e+11,1.60801e+16
6.65e+06,128302,7.28676e+06,1.58391e+26,3.32345e+22,3.93435e+11,0.461019,1.31207e+31,0.03468,0.000211731,2.63597e-10,9.98769e-60,3.23773e+15,1.28377e+16,7.10931e+11,1.60762e+16
6.75e+06,128281,7.2862e+06,1.65628e+26,3.47433e+22,3.9935e+11,0.46109,1.31105e+31,0.03468,0.000211725,2.63571e-10,9.98559e-60,3.23684e+15,1.28346e+16,7.10713e+11,1.60722e+16
6.85e+06,128260,7.28563e+06,1.73082e+26,3.62964e+22,4.05265e+11,0.461162,1.31002e+31,0.03468,0.000211727,2.63579e-10,9.98626e-60,3.23594e+15,1.28315e+16,7.10491e+11,1.60681e+16
6.95e+06,128238,7.28505e+06,1.80755e+26,3.78945e+22,4.1118e+11,0.461236,1.30898e+31,0.03468,0.000211725,2.63571e-10,9.98561e-60,3.23503e+15,1.28283e+16,7.10266e+11,1.6064e+16
7.05e+06,128216,7.28447e+06,1.8865e+26,3.95381e+22,4.17095e+11,0.46131,1.30792e+31,0.03468,0.000211723,2.63559e-10,9.98458e-60,3.23411e+15,1.28251e+16,7.10038e+11,1.60599e+16
7.15e+06,128194,7.28387e+06,1.96772e+26,4.12279e+22,4.23009e+11,0.461385,1.30685e+31,0.03468,0.000211721,2.63552e-10,9.98401e-60,3.23317e+15,1.28218e+16,7.09806e+11,1.60557e+16
7.25e+06,128171,7.28327e+06,2.05122e+26,4.29645e+22,4.28924e+11,0.461461,1.30576e+31,0.03468,0.000211717,2.63533e-10,9.98238e-60,3.23222e+15,1.28185e+16,7.09572e+11,1.60514e+16
7.35e+06,128148,7.28266e+06,2.13705e+26,4.47484e+22,4.34839e+11,0.461539,1.30466e+31,0.03468,0.00021171,2.63504e-10,9.98005e-60,3.23125e+15,1.28151e+16,7.09334e+11,1.60471e+16
7.45e+06,128125,7.28204e+06,2.22523e+26,4.65803e+22,4.40753e+11,0.461618,1.30355e+31,0.03468,0.000211712,2.63513e-10,9.98079e-60,3.23028e+15,1.28117e+16,7.09093e+11,1.60427e+16
7.55e+06,128101,7.28142e+06,2.31579e+26,4.84606e+22,4.46668e+11,0.461697,1.30242e+31,0.03468,0.00021171,2.63505e-10,9.98008e-60,3.22929e+15,1.28082e+16,7.08849e+11,1.60382e+16
7.65e+06,128077,7.28078e+06,2.40876e+26,5.03901e+22,4.52582e+11,0.461778,1.30127e+31,0.03468,0.000211708,2.63491e-10,9.97894e-60,3.22828e+15,1.28047e+16,7.08602e+11,1.60337e+16
7.75e+06,128053,7.28014e+06,2.50418e+26,5.23692e+22,4.58496e+11,0.46186,1.30012e+31,0.03468,0.000211706,2.63484e-10,9.97832e-60,3.22727e+15,1.28012e+16,7.08352e+11,1.60292e+16
7.85e+06,128029,7.27949e+06,2.60207e+26,5.43986e+22,4.64411e+11,0.461942,1.29895e+31,0.03468,0.000211701,2.63462e-10,9.97652e-60,3.22624e+15,1.27976e+16,7.08098e+11,1.60246e+16
7.95e+06,128004,7.27883e+06,2.70247e+26,5.64788e+22,4.70325e+11,0.462026,1.29776e+31,0.03468,0.000211693,2.63431e-10,9.97396e-60,3.2252e+15,1.2794e+16,7.07842e+11,1.60199e+16
8.05e+06,127979,7.27816e+06,2.80541e+26,5.86104e+22,4.76239e+11,0.462111,1.29656e+31,0.03468,0.000211696,2.63441e-10,9.97478e-60,3.22415e+15,1.27903e+16,7.07582e+11,1.60151e+16
8.15e+06,127953,7.27748e+06,2.91092e+26,6.07939e+22,4.82153e+11,0.462197,1.29535e+31,0.03468,0.000211694,2.63431e-10,9.97399e-60,3.22308e+15,1.27866e+16,7.07319e+11,1.60103e+16
8.25e+06,127928,7.2768e+06,3.01902e+26,6.303e+22,4.88067e+11,0.462285,1.29413e+31,0.03468,0.000211691,2.63416e-10,9.97275e-60,3.222e+15,1.27828e+16,7.07053e+11,1.60055e+16
8.35e+06,127902,7.27611e+06,3.12976e+26,6.53191e+22,4.93981e+11,0.462373,1.29289e+31,0.03468,0.000211689,2.63408e-10,9.97207e-60,3.22091e+15,1.2779e+16,7.06784e+11,1.60006e+16
8.45e+06,127875,7.27541e+06,3.24316e+26,6.76619e+22,4.99895e+11,0.462462,1.29163e+31,0.03468,0.000211684,2.63385e-10,9.97011e-60,3.2198e+15,1.27751e+16,7.06511e+11,1.59956e+16
8.55e+06,127849,7.2747e+06,3.35925e+26,7.00588e+22,5.05808e+11,0.462552,1.29036e+31,0.03468,0.000211676,2.63351e-10,9.96732e-60,3.21869e+15,1.27712e+16,7.06236e+11,1.59906e+16
8.65e+06,127822,7.27398e+06,3.47806e+26,7.25105e+22,5.11722e+11,0.462644,1.28908e+31,0.03468,0.000211678,2.63362e-10,9.96821e-60,3.21756e+15,1.27672e+16,7.05957e+11,1.59855e+16
8.75e+06,127794,7.27325e+06,3.59963e+26,7.50175e+22,5.17636e+11,0.462736,1.28779e+31,0.03468,0.000211676,2.63351e-10,9.96736e-60,3.21641e+15,1.27633e+16,7.05676e+11,1.59804e+16
8.85e+06,127767,7.27252e+06,3.72398e+26,7.75803e+22,5.23549e+11,0.46283,1.28648e+31,0.03468,0.000211673,2.63335e-10,9.96601e-60,3.21526e+15,1.27592e+16,7.05391e+11,1.59752e+16
8.95e+06,127739,7.27178e+06,3.85114e+26,8.01995e+22,5.29463e+11,0.462925,1.28516e+31,0.03468,0.00021167,2.63326e-10,9.96527e-60,3.21409e+15,1.27551e+16,7.05103e+11,1.59699e+16
9.05e+06,127711,7.27103e+06,3.98115e+26,8.28756e+22,5.35376e+11,0.463021,1.28382e+31,0.03468,0.000211665,2.63301e-10,9.96316e-60,3.21291e+15,1.2751e+16,7.04812e+11,1.59646e+16
9.15e+06,127682,7.27027e+06,4.11404e+26,8.56092e+22,5.41289e+11,0.463117,1.28248e+31,0.03468,0.000211656,2.63264e-10,9.96014e-60,3.21171e+15,1.27468e+16,7.04518e+11,1.59592e+16
9.25e+06,127654,7.2695e+06,4.24983e+26,8.84007e+22,5.47202e+11,0.463215,1.28111e+31,0.03468,0.000211659,2.63276e-10,9.9611e-60,3.21051e+15,1.27426e+16,7.0422e+11,1.59538e+16
9.35e+06,127625,7.26873e+06,4.38856e+26,9.12507e+22,5.53116e+11,0.463314,1.27974e+31,0.03468,0.000211657,2.63265e-10,9.96018e-60,3.20929e+15,1.27383e+16,7.0392e+11,1.59483e+16
9.45e+06,127595,7.26794e+06,4.53025e+26,9.41598e+22,5.59029e+11,0.463415,1.27835e+31,0.03468,0.000211653,2.63247e-10,9.95873e-60,3.20806e+15,1.2734e+16,7.03617e+11,1.59428e+16
9.55e+06,127565,7.26715e+06,4.67495e+26,9.71285e+22,5.64942e+11,0.463516,1.27695e+31,0.03468,0.000211651,2.63238e-10,9.95793e-60,3.20681e+15,1.27297e+16,7.0331e+11,1.59372e+16
9.65e+06,127535,7.26635e+06,4.82267e+26,1.00157e+23,5.70854e+11,0.463618,1.27554e+31,0.03468,0.000211645,2.6321e-10,9.95565e-60,3.20556e+15,1.27253e+16,7.03e+11,1.59316e+16
9.75e+06,127505,7.26554e+06,4.97345e+26,1.03247e+23,5.76767e+11,0.463721,1.27411e+31,0.03468,0.000211635,2.63171e-10,9.95241e-60,3.20429e+15,1.27209e+16,7.02688e+11,1.59258e+16
9.85e+06,127475,7.26473e+06,5.12731e+26,1.06397e+23,5.8268e+11,0.463826,1.27267e+31,0.03468,0.000211638,2.63183e-10,9.95344e-60,3.203e+15,1.27164e+16,7.02372e+11,1.59201e+16
9.95e+06,127444,7.2639e+06,5.2843e+26,1.09609e+23,5.88592e+11,0.463931,1.27121e+31,0.03468,0.000211636,2.63172e-10,9.95245e-60,3.20171e+15,1.27118e+16,7.02053e+11,1.59143e+16
1.005e+07,127412,7.26307e+06,5.44443e+26,1.12883e+23,5.94505e+11,0.464038,1.26975e+31,0.03468,0.000211632,2.63153e-10,9.95089e-60,3.2004e+15,1.27073e+16,7.01731e+11,1.59084e+16
1.015e+07,127381,7.26223e+06,5.60774e+26,1.1622e+23,6.00417e+11,0.464146,1.26827e+31,0.03468,0.000211629,2.63142e-10,9.95004e-60,3.19908e+15,1.27027e+16,7.01406e+11,1.59024e+16
1.025e+07,127349,7.26138e+06,5.77426e+26,1.1962e+23,6.0633e+11,0.464255,1.26677e+31,0.03468,0.000211623,2.63113e-10,9.94761e-60,3.19775e+15,1.2698e+16,7.01078e+11,1.58965e+16
1.035e+07,127317,7.26052e+06,5.94402e+26,1.23084e+23,6.12242e+11,0.464365,1.26527e+31,0.03468,0.000211613,2.63071e-10,9.94413e-60,3.19641e+15,1.26933e+16,7.00747e+11,1.58904e+16
1.045e+07,127285,7.25966e+06,6.11704e+26,1.26611e+23,6.18154e+11,0.464476,1.26375e+31,0.03468,0.000211616,2.63084e-10,9.94524e-60,3.19505e+15,1.26886e+16,7.00413e+11,1.58843e+16
1.055e+07,127252,7.25878e+06,6.29337e+26,1.30204e+23,6.24066e+11,0.464588,1.26222e+31,0.03468,0.000211613,2.63072e-10,9.94418e-60,3.19368e+15,1.26838e+16,7.00076e+11,1.58781e+16
1.065e+07,127219,7.2579e+06,6.47302e+26,1.33861e+23,6.29978e+11,0.464701,1.26068e+31,0.03468,0.000211609,2.63052e-10,9.94252e-60,3.1923e+15,1.26789e+16,6.99735e+11,1.58719e+16
1.075e+07,127185,7.25701e+06,6.65603e+26,1.37584e+23,6.3589e+11,0.464815,1.25912e+31,0.03468,0.000211606,2.63041e-10,9.94161e-60,3.1909e+15,1.26741e+16,6.99392e+11,1.58657e+16
1.085e+07,127152,7.25611e+06,6.84243e+26,1.41373e+23,6.41802e+11,0.46493,1.25755e+31,0.03468,0.0002116,2.63009e-10,9.93901e-60,3.1895e+15,1.26691e+16,6.99046e+11,1.58593e+16
1.095e+07,127118,7.2552e+06,7.03225e+26,1.45228e+23,6.47713e+11,0.465047,1.25597e+31,0.03468,0.000211589,2.62964e-10,9.93531e-60,3.18808e+15,1.26642e+16,6.98697e+11,1.58529e+16
