X = 0.734
Y = 0.25
Z = 0.016
mu = 0.601142
Radius,Density,Temp,Mass,Lum,OptD,Kff,KH,Kes,PP,CNO,3a,Deg,Gas,Rad,TotPres
0,0,0,0,0,0,-nan,0,0.03468,0.000727106,1.86127e-07,2.03329e-53,0,0,0,0
1,116000,1.02115e+07,485900,353.391,15296.3,0.131865,2.60062e+32,0.03468,0.000727106,1.86127e-07,2.03329e-53,2.73704e+15,1.62656e+16,2.74191e+12,1.90054e+16
30001,116000,1.02115e+07,1.31206e+19,9.54251e+15,4.58904e+08,0.131865,2.60062e+32,0.03468,0.000727106,1.86127e-07,2.03329e-53,2.73704e+15,1.62656e+16,2.74191e+12,1.90054e+16
70001,116000,1.02115e+07,1.66671e+20,1.21218e+17,1.07076e+09,0.131865,2.60062e+32,0.03468,0.000727106,1.86127e-07,2.03329e-53,2.73704e+15,1.62656e+16,2.74191e+12,1.90053e+16
150001,116000,1.02115e+07,1.63994e+21,1.19271e+18,2.29446e+09,0.131865,2.6006e+32,0.03468,0.000727106,1.86127e-07,2.03329e-53,2.73703e+15,1.62655e+16,2.74191e+12,1.90053e+16
250001,115999,1.02115e+07,7.59225e+21,5.52173e+18,3.82409e+09,0.131865,2.60056e+32,0.03468,0.000727106,1.86127e-07,2.03329e-53,2.73702e+15,1.62654e+16,2.74189e+12,1.90052e+16
350001,115999,1.02115e+07,2.0833e+22,1.51514e+19,5.35371e+09,0.131866,2.6005e+32,0.03468,0.000727106,1.86127e-07,2.03329e-53,2.73699e+15,1.62653e+16,2.74186e+12,1.90051e+16
450001,115998,1.02115e+07,4.42774e+22,3.22017e+19,6.88334e+09,0.131867,2.60041e+32,0.03468,0.000727106,1.86127e-07,2.03329e-53,2.73696e+15,1.62652e+16,2.74183e+12,1.90049e+16
550001,115997,1.02114e+07,8.08407e+22,5.87922e+19,8.41297e+09,0.131868,2.60031e+32,0.03468,0.000727106,1.86127e-07,2.03329e-53,2.73692e+15,1.62649e+16,2.74178e+12,1.90046e+16
650001,115996,1.02114e+07,1.33438e+23,9.70422e+19,9.94259e+09,0.131869,2.60018e+32,0.03468,0.000727106,1.86127e-07,2.03328e-53,2.73687e+15,1.62647e+16,2.74173e+12,1.90043e+16
750001,115994,1.02113e+07,2.04984e+23,1.49071e+20,1.14722e+10,0.13187,2.60004e+32,0.03468,0.000727106,1.86127e-07,2.03328e-53,2.73682e+15,1.62644e+16,2.74167e+12,1.9004e+16
850001,115993,1.02112e+07,2.98393e+23,2.16996e+20,1.30018e+10,0.131872,2.59987e+32,0.03468,0.000727106,1.86126e-07,2.03328e-53,2.73675e+15,1.62641e+16,2.7416e+12,1.90036e+16
950001,115991,1.02112e+07,4.1658e+23,3.02935e+20,1.45314e+10,0.131874,2.59968e+32,0.03468,0.000727106,1.86126e-07,2.03328e-53,2.73668e+15,1.62637e+16,2.74152e+12,1.90031e+16
1.05e+06,115989,1.02111e+07,5.62459e+23,4.09005e+20,1.60611e+10,0.131876,2.59948e+32,0.03468,0.000727106,1.86126e-07,2.03328e-53,2.7366e+15,1.62633e+16,2.74144e+12,1.90026e+16
1.15e+06,115987,1.0211e+07,7.38943e+23,5.37322e+20,1.75907e+10,0.131878,2.59925e+32,0.03468,0.000727106,1.86126e-07,2.03328e-53,2.73651e+15,1.62628e+16,2.74134e+12,1.90021e+16
1.25e+06,115984,1.02109e+07,9.48947e+23,6.90002e+20,1.91203e+10,0.13188,2.599e+32,0.03468,0.000727105,1.86126e-07,2.03327e-53,2.73642e+15,1.62623e+16,2.74124e+12,1.90015e+16
1.35e+06,115981,1.02108e+07,1.19538e+24,8.69159e+20,2.06499e+10,0.131883,2.59873e+32,0.03468,0.000727105,1.86126e-07,2.03327e-53,2.73631e+15,1.62618e+16,2.74112e+12,1.90009e+16
1.45e+06,115979,1.02107e+07,1.48116e+24,1.07691e+21,2.21795e+10,0.131886,2.59844e+32,0.03468,0.000727105,1.86126e-07,2.03327e-53,2.7362e+15,1.62612e+16,2.741e+12,1.90002e+16
1.55e+06,115976,1.02106e+07,1.8092e+24,1.31535e+21,2.37091e+10,0.131889,2.59813e+32,0.03468,0.000727105,1.86126e-07,2.03327e-53,2.73608e+15,1.62606e+16,2.74087e+12,1.89994e+16
1.65e+06,115972,1.02104e+07,2.18241e+24,1.58661e+21,2.52387e+10,0.131892,2.59779e+32,0.03468,0.000727105,1.86125e-07,2.03326e-53,2.73595e+15,1.62599e+16,2.74073e+12,1.89986e+16
1.75e+06,115969,1.02103e+07,2.6037e+24,1.8928e+21,2.67682e+10,0.131896,2.59744e+32,0.03468,0.000727104,1.86125e-07,2.03325e-53,2.73582e+15,1.62592e+16,2.74059e+12,1.89978e+16
1.85e+06,115965,1.02101e+07,3.07599e+24,2.23601e+21,2.82978e+10,0.131899,2.59707e+32,0.03468,0.000727103,1.86124e-07,2.03323e-53,2.73567e+15,1.62585e+16,2.74043e+12,1.89969e+16
1.95e+06,115961,1.021e+07,3.60217e+24,2.61836e+21,2.98274e+10,0.131903,2.59667e+32,0.03468,0.000727102,1.86123e-07,2.03321e-53,2.73552e+15,1.62577e+16,2.74026e+12,1.8996e+16
2.05e+06,115957,1.02098e+07,4.18517e+24,3.04195e+21,3.1357e+10,0.131907,2.59626e+32,0.03468,0.000727102,1.86123e-07,2.03321e-53,2.73536e+15,1.62569e+16,2.74009e+12,1.8995e+16
2.15e+06,115953,1.02097e+07,4.82789e+24,3.50889e+21,3.28865e+10,0.131912,2.59582e+32,0.03468,0.000727102,1.86123e-07,2.0332e-53,2.7352e+15,1.6256e+16,2.73991e+12,1.89939e+16
2.25e+06,115949,1.02095e+07,5.53324e+24,4.02127e+21,3.44161e+10,0.131916,2.59536e+32,0.03468,0.000727101,1.86122e-07,2.03318e-53,2.73502e+15,1.62551e+16,2.73972e+12,1.89929e+16
2.35e+06,115944,1.02093e+07,6.30412e+24,4.5812e+21,3.59456e+10,0.131921,2.59488e+32,0.03468,0.0007271,1.86121e-07,2.03316e-53,2.73484e+15,1.62542e+16,2.73952e+12,1.89917e+16
2.45e+06,115939,1.02091e+07,7.14346e+24,5.19078e+21,3.74751e+10,0.131926,2.59439e+32,0.03468,0.000727098,1.86119e-07,2.03311e-53,2.73464e+15,1.62532e+16,2.73931e+12,1.89905e+16
2.55e+06,115934,1.02089e+07,8.05414e+24,5.8521e+21,3.90047e+10,0.131931,2.59387e+32,0.03468,0.000727095,1.86117e-07,2.03305e-53,2.73445e+15,1.62521e+16,2.73909e+12,1.89893e+16
2.65e+06,115929,1.02087e+07,9.03909e+24,6.56725e+21,4.05342e+10,0.131936,2.59333e+32,0.03468,0.000727096,1.86117e-07,2.03307e-53,2.73424e+15,1.62511e+16,2.73887e+12,1.8988e+16
2.75e+06,115923,1.02085e+07,1.01012e+25,7.33832e+21,4.20637e+10,0.131942,2.59277e+32,0.03468,0.000727095,1.86116e-07,2.03304e-53,2.73402e+15,1.62499e+16,2.73863e+12,1.89867e+16
2.85e+06,115918,1.02083e+07,1.12434e+25,8.16742e+21,4.35932e+10,0.131947,2.59219e+32,0.03468,0.000727093,1.86115e-07,2.033e-53,2.7338e+15,1.62488e+16,2.73839e+12,1.89853e+16
2.95e+06,115912,1.0208e+07,1.24685e+25,9.05661e+21,4.51227e+10,0.131953,2.59159e+32,0.03468,0.000727092,1.86114e-07,2.03298e-53,2.73357e+15,1.62476e+16,2.73814e+12,1.89839e+16
3.05e+06,115906,1.02078e+07,1.37795e+25,1.0008e+22,4.66522e+10,0.131959,2.59097e+32,0.03468,0.000727089,1.86111e-07,2.03291e-53,2.73333e+15,1.62464e+16,2.73788e+12,1.89824e+16
3.15e+06,115899,1.02075e+07,1.51793e+25,1.10237e+22,4.81817e+10,0.131966,2.59032e+32,0.03468,0.000727084,1.86107e-07,2.03282e-53,2.73308e+15,1.62451e+16,2.73761e+12,1.89809e+16
3.25e+06,115893,1.02073e+07,1.66708e+25,1.21057e+22,4.97112e+10,0.131972,2.58966e+32,0.03468,0.000727085,1.86108e-07,2.03284e-53,2.73283e+15,1.62438e+16,2.73733e+12,1.89793e+16
3.35e+06,115886,1.0207e+07,1.82568e+25,1.32561e+22,5.12406e+10,0.131979,2.58898e+32,0.03468,0.000727084,1.86107e-07,2.03281e-53,2.73257e+15,1.62424e+16,2.73705e+12,1.89777e+16
3.45e+06,115879,1.02067e+07,1.99404e+25,1.4477e+22,5.27701e+10,0.131986,2.58827e+32,0.03468,0.000727082,1.86104e-07,2.03275e-53,2.7323e+15,1.6241e+16,2.73675e+12,1.8976e+16
3.55e+06,115872,1.02064e+07,2.17243e+25,1.57705e+22,5.42995e+10,0.131993,2.58755e+32,0.03468,0.00072708,1.86103e-07,2.03272e-53,2.73202e+15,1.62395e+16,2.73645e+12,1.89743e+16
3.65e+06,115865,1.02062e+07,2.36114e+25,1.71387e+22,5.58289e+10,0.132,2.5868e+32,0.03468,0.000727076,1.86099e-07,2.03263e-53,2.73173e+15,1.62381e+16,2.73614e+12,1.89725e+16
3.75e+06,115857,1.02059e+07,2.56047e+25,1.85835e+22,5.73584e+10,0.132008,2.58604e+32,0.03468,0.000727069,1.86094e-07,2.0325e-53,2.73144e+15,1.62365e+16,2.73582e+12,1.89707e+16
3.85e+06,115850,1.02055e+07,2.77071e+25,2.01072e+22,5.88878e+10,0.132016,2.58525e+32,0.03468,0.000727072,1.86095e-07,2.03254e-53,2.73113e+15,1.6235e+16,2.73549e+12,1.89688e+16
3.95e+06,115842,1.02052e+07,2.99215e+25,2.17116e+22,6.04172e+10,0.132024,2.58445e+32,0.03468,0.00072707,1.86094e-07,2.0325e-53,2.73082e+15,1.62334e+16,2.73515e+12,1.89669e+16
4.05e+06,115834,1.02049e+07,3.22506e+25,2.3399e+22,6.19465e+10,0.132032,2.58362e+32,0.03468,0.000727067,1.86091e-07,2.03243e-53,2.73051e+15,1.62317e+16,2.7348e+12,1.8965e+16
4.15e+06,115825,1.02046e+07,3.46976e+25,2.51712e+22,6.34759e+10,0.13204,2.58277e+32,0.03468,0.000727065,1.86089e-07,2.03239e-53,2.73018e+15,1.623e+16,2.73445e+12,1.89629e+16
4.25e+06,115817,1.02042e+07,3.72651e+25,2.70305e+22,6.50053e+10,0.132049,2.58191e+32,0.03468,0.00072706,1.86084e-07,2.03227e-53,2.72985e+15,1.62283e+16,2.73409e+12,1.89609e+16
4.35e+06,115808,1.02039e+07,3.99562e+25,2.89788e+22,6.65346e+10,0.132058,2.58102e+32,0.03468,0.000727051,1.86077e-07,2.03211e-53,2.7295e+15,1.62265e+16,2.73371e+12,1.89588e+16
4.45e+06,115799,1.02035e+07,4.27736e+25,3.10182e+22,6.8064e+10,0.132067,2.58011e+32,0.03468,0.000727054,1.8608e-07,2.03216e-53,2.72915e+15,1.62247e+16,2.73333e+12,1.89566e+16
4.55e+06,115790,1.02032e+07,4.57203e+25,3.31507e+22,6.95933e+10,0.132076,2.57918e+32,0.03468,0.000727052,1.86077e-07,2.03211e-53,2.7288e+15,1.62229e+16,2.73294e+12,1.89544e+16
4.65e+06,115781,1.02028e+07,4.87993e+25,3.53783e+22,7.11226e+10,0.132085,2.57823e+32,0.03468,0.000727048,1.86074e-07,2.03202e-53,2.72843e+15,1.6221e+16,2.73255e+12,1.89521e+16
4.75e+06,115771,1.02024e+07,5.20132e+25,3.77032e+22,7.26519e+10,0.132095,2.57726e+32,0.03468,0.000727046,1.86072e-07,2.03198e-53,2.72806e+15,1.6219e+16,2.73214e+12,1.89498e+16
4.85e+06,115762,1.0202e+07,5.53651e+25,4.01272e+22,7.41811e+10,0.132105,2.57628e+32,0.03468,0.00072704,1.86066e-07,2.03184e-53,2.72768e+15,1.62171e+16,2.73172e+12,1.89475e+16
4.95e+06,115752,1.02016e+07,5.88579e+25,4.26525e+22,7.57104e+10,0.132115,2.57527e+32,0.03468,0.00072703,1.86058e-07,2.03164e-53,2.72729e+15,1.6215e+16,2.7313e+12,1.89451e+16
5.05e+06,115742,1.02012e+07,6.24943e+25,4.5281e+22,7.72396e+10,0.132125,2.57424e+32,0.03468,0.000727033,1.8606e-07,2.0317e-53,2.72689e+15,1.6213e+16,2.73087e+12,1.89426e+16
5.15e+06,115731,1.02008e+07,6.62773e+25,4.80148e+22,7.87689e+10,0.132135,2.57319e+32,0.03468,0.00072703,1.86058e-07,2.03164e-53,2.72649e+15,1.62109e+16,2.73043e+12,1.89401e+16
5.25e+06,115721,1.02004e+07,7.02097e+25,5.08559e+22,8.02981e+10,0.132146,2.57212e+32,0.03468,0.000727026,1.86054e-07,2.03154e-53,2.72607e+15,1.62087e+16,2.72998e+12,1.89375e+16
5.35e+06,115710,1.02e+07,7.42945e+25,5.38063e+22,8.18273e+10,0.132157,2.57103e+32,0.03468,0.000727023,1.86051e-07,2.03148e-53,2.72565e+15,1.62066e+16,2.72952e+12,1.89349e+16
5.45e+06,115699,1.01995e+07,7.85344e+25,5.68679e+22,8.33565e+10,0.132168,2.56992e+32,0.03468,0.000727016,1.86045e-07,2.03132e-53,2.72522e+15,1.62043e+16,2.72905e+12,1.89323e+16
5.55e+06,115688,1.01991e+07,8.29324e+25,6.00429e+22,8.48856e+10,0.132179,2.56879e+32,0.03468,0.000727004,1.86035e-07,2.03109e-53,2.72479e+15,1.62021e+16,2.72858e+12,1.89296e+16
5.65e+06,115677,1.01986e+07,8.74914e+25,6.33331e+22,8.64148e+10,0.13219,2.56764e+32,0.03468,0.000727008,1.86038e-07,2.03117e-53,2.72434e+15,1.61998e+16,2.72809e+12,1.89268e+16
5.75e+06,115665,1.01982e+07,9.22142e+25,6.67406e+22,8.79439e+10,0.132202,2.56647e+32,0.03468,0.000727005,1.86035e-07,2.03109e-53,2.72389e+15,1.61974e+16,2.7276e+12,1.89241e+16
5.85e+06,115654,1.01977e+07,9.71036e+25,7.02674e+22,8.9473e+10,0.132214,2.56528e+32,0.03468,0.000727,1.8603e-07,2.03098e-53,2.72343e+15,1.6195e+16,2.7271e+12,1.89212e+16
5.95e+06,115642,1.01972e+07,1.02163e+26,7.39154e+22,9.10021e+10,0.132226,2.56407e+32,0.03468,0.000726997,1.86027e-07,2.03092e-53,2.72296e+15,1.61926e+16,2.72659e+12,1.89183e+16
6.05e+06,115630,1.01968e+07,1.07394e+26,7.76866e+22,9.25312e+10,0.132238,2.56284e+32,0.03468,0.000726989,1.8602e-07,2.03073e-53,2.72249e+15,1.61902e+16,2.72607e+12,1.89154e+16
6.15e+06,115617,1.01963e+07,1.12801e+26,8.1583e+22,9.40603e+10,0.132251,2.56159e+32,0.03468,0.000726976,1.86009e-07,2.03047e-53,2.72201e+15,1.61877e+16,2.72555e+12,1.89124e+16
6.25e+06,115605,1.01958e+07,1.18385e+26,8.56065e+22,9.55893e+10,0.132263,2.56032e+32,0.03468,0.00072698,1.86012e-07,2.03055e-53,2.72151e+15,1.61851e+16,2.72501e+12,1.89093e+16
6.35e+06,115592,1.01953e+07,1.24151e+26,8.97591e+22,9.71183e+10,0.132276,2.55903e+32,0.03468,0.000726976,1.86009e-07,2.03047e-53,2.72102e+15,1.61825e+16,2.72447e+12,1.89063e+16
6.45e+06,115579,1.01947e+07,1.30101e+26,9.40428e+22,9.86473e+10,0.132289,2.55772e+32,0.03468,0.000726971,1.86003e-07,2.03034e-53,2.72051e+15,1.61799e+16,2.72392e+12,1.89031e+16
6.55e+06,115566,1.01942e+07,1.36237e+26,9.84595e+22,1.00176e+11,0.132303,2.55639e+32,0.03468,0.000726967,1.86e-07,2.03027e-53,2.71999e+15,1.61772e+16,2.72336e+12,1.88999e+16
6.65e+06,115553,1.01937e+07,1.42562e+26,1.03011e+23,1.01705e+11,0.132316,2.55504e+32,0.03468,0.000726958,1.85992e-07,2.03006e-53,2.71947e+15,1.61745e+16,2.72279e+12,1.88967e+16
6.75e+06,115539,1.01931e+07,1.49081e+26,1.077e+23,1.03234e+11,0.13233,2.55368e+32,0.03468,0.000726943,1.85979e-07,2.02977e-53,2.71894e+15,1.61718e+16,2.72221e+12,1.88934e+16
6.85e+06,115525,1.01926e+07,1.55794e+26,1.12527e+23,1.04763e+11,0.132344,2.55229e+32,0.03468,0.000726948,1.85983e-07,2.02986e-53,2.7184e+15,1.6169e+16,2.72163e+12,1.88901e+16
6.95e+06,115511,1.0192e+07,1.62705e+26,1.17495e+23,1.06292e+11,0.132358,2.55088e+32,0.03468,0.000726944,1.8598e-07,2.02977e-53,2.71786e+15,1.61661e+16,2.72103e+12,1.88867e+16
7.05e+06,115497,1.01915e+07,1.69818e+26,1.22606e+23,1.07821e+11,0.132372,2.54945e+32,0.03468,0.000726938,1.85974e-07,2.02963e-53,2.7173e+15,1.61633e+16,2.72043e+12,1.88833e+16
7.15e+06,115483,1.01909e+07,1.77134e+26,1.27862e+23,1.0935e+11,0.132387,2.54801e+32,0.03468,0.000726934,1.8597e-07,2.02955e-53,2.71674e+15,1.61604e+16,2.71982e+12,1.88798e+16
7.25e+06,115469,1.01903e+07,1.84657e+26,1.33263e+23,1.10879e+11,0.132402,2.54654e+32,0.03468,0.000726924,1.85961e-07,2.02932e-53,2.71617e+15,1.61574e+16,2.7192e+12,1.88763e+16
7.35e+06,115454,1.01897e+07,1.92389e+26,1.38814e+23,1.12407e+11,0.132417,2.54506e+32,0.03468,0.000726907,1.85947e-07,2.02899e-53,2.7156e+15,1.61544e+16,2.71857e+12,1.88727e+16
7.45e+06,115439,1.01891e+07,2.00333e+26,1.44514e+23,1.13936e+11,0.132432,2.54355e+32,0.03468,0.000726913,1.85951e-07,2.02909e-53,2.71501e+15,1.61514e+16,2.71793e+12,1.88691e+16
7.55e+06,115424,1.01885e+07,2.08493e+26,1.50367e+23,1.15465e+11,0.132447,2.54203e+32,0.03468,0.000726908,1.85947e-07,2.02899e-53,2.71442e+15,1.61483e+16,2.71729e+12,1.88655e+16
7.65e+06,115408,1.01879e+07,2.1687e+26,1.56374e+23,1.16994e+11,0.132463,2.54048e+32,0.03468,0.000726902,1.8594e-07,2.02883e-53,2.71382e+15,1.61452e+16,2.71663e+12,1.88617e+16
7.75e+06,115393,1.01873e+07,2.25468e+26,1.62537e+23,1.18523e+11,0.132479,2.53892e+32,0.03468,0.000726897,1.85937e-07,2.02874e-53,2.71321e+15,1.6142e+16,2.71597e+12,1.8858e+16
7.85e+06,115377,1.01867e+07,2.3429e+26,1.68858e+23,1.20051e+11,0.132495,2.53734e+32,0.03468,0.000726886,1.85926e-07,2.02849e-53,2.7126e+15,1.61389e+16,2.7153e+12,1.88542e+16
7.95e+06,115361,1.0186e+07,2.43338e+26,1.75339e+23,1.2158e+11,0.132511,2.53574e+32,0.03468,0.000726868,1.85911e-07,2.02813e-53,2.71197e+15,1.61356e+16,2.71462e+12,1.88503e+16
8.05e+06,115345,1.01854e+07,2.52616e+26,1.81981e+23,1.23109e+11,0.132527,2.53411e+32,0.03468,0.000726874,1.85916e-07,2.02825e-53,2.71134e+15,1.61323e+16,2.71394e+12,1.88464e+16
8.15e+06,115329,1.01847e+07,2.62125e+26,1.88786e+23,1.24637e+11,0.132544,2.53247e+32,0.03468,0.000726869,1.85911e-07,2.02814e-53,2.7107e+15,1.6129e+16,2.71324e+12,1.88424e+16
8.25e+06,115312,1.01841e+07,2.71869e+26,1.95757e+23,1.26166e+11,0.132561,2.53082e+32,0.03468,0.000726862,1.85904e-07,2.02796e-53,2.71006e+15,1.61257e+16,2.71254e+12,1.88384e+16
8.35e+06,115296,1.01834e+07,2.81851e+26,2.02895e+23,1.27694e+11,0.132578,2.52914e+32,0.03468,0.000726857,1.859e-07,2.02787e-53,2.7094e+15,1.61223e+16,2.71183e+12,1.88344e+16
8.45e+06,115279,1.01827e+07,2.92074e+26,2.10202e+23,1.29223e+11,0.132595,2.52744e+32,0.03468,0.000726845,1.85888e-07,2.02759e-53,2.70874e+15,1.61188e+16,2.7111e+12,1.88303e+16
8.55e+06,115262,1.0182e+07,3.0254e+26,2.1768e+23,1.30751e+11,0.132612,2.52572e+32,0.03468,0.000726825,1.85872e-07,2.0272e-53,2.70807e+15,1.61154e+16,2.71038e+12,1.88262e+16
8.65e+06,115244,1.01813e+07,3.13251e+26,2.2533e+23,1.3228e+11,0.13263,2.52399e+32,0.03468,0.000726832,1.85877e-07,2.02732e-53,2.70739e+15,1.61119e+16,2.70964e+12,1.8822e+16
8.75e+06,115227,1.01806e+07,3.24212e+26,2.33155e+23,1.33808e+11,0.132648,2.52223e+32,0.03468,0.000726826,1.85872e-07,2.0272e-53,2.70671e+15,1.61083e+16,2.70889e+12,1.88177e+16
8.85e+06,115209,1.01799e+07,3.35425e+26,2.41156e+23,1.35337e+11,0.132666,2.52046e+32,0.03468,0.000726818,1.85864e-07,2.02701e-53,2.70602e+15,1.61047e+16,2.70814e+12,1.88134e+16
8.95e+06,115191,1.01792e+07,3.46892e+26,2.49335e+23,1.36865e+11,0.132684,2.51867e+32,0.03468,0.000726813,1.8586e-07,2.02691e-53,2.70532e+15,1.61011e+16,2.70738e+12,1.88091e+16
9.05e+06,115173,1.01785e+07,3.58616e+26,2.57694e+23,1.38394e+11,0.132702,2.51686e+32,0.03468,0.0007268,1.85847e-07,2.02661e-53,2.70461e+15,1.60974e+16,2.7066e+12,1.88047e+16
9.15e+06,115155,1.01778e+07,3.706e+26,2.66234e+23,1.39922e+11,0.132721,2.51503e+32,0.03468,0.000726778,1.8583e-07,2.02619e-53,2.70389e+15,1.60937e+16,2.70583e+12,1.88003e+16
9.25e+06,115136,1.0177e+07,3.82848e+26,2.74958e+23,1.4145e+11,0.13274,2.51318e+32,0.03468,0.000726785,1.85835e-07,2.02632e-53,2.70317e+15,1.60899e+16,2.70504e+12,1.87958e+16
9.35e+06,115118,1.01763e+07,3.9536e+26,2.83867e+23,1.42979e+11,0.132759,2.51131e+32,0.03468,0.00072678,1.8583e-07,2.02619e-53,2.70244e+15,1.60861e+16,2.70424e+12,1.87913e+16
9.45e+06,115099,1.01755e+07,4.08142e+26,2.92964e+23,1.44507e+11,0.132778,2.50943e+32,0.03468,0.000726771,1.85821e-07,2.02599e-53,2.7017e+15,1.60823e+16,2.70344e+12,1.87867e+16
9.55e+06,115080,1.01748e+07,4.21194e+26,3.02249e+23,1.46035e+11,0.132798,2.50752e+32,0.03468,0.000726765,1.85817e-07,2.02588e-53,2.70095e+15,1.60784e+16,2.70263e+12,1.87821e+16
9.65e+06,115061,1.0174e+07,4.34521e+26,3.11724e+23,1.47564e+11,0.132818,2.5056e+32,0.03468,0.000726751,1.85803e-07,2.02556e-53,2.7002e+15,1.60745e+16,2.70181e+12,1.87774e+16
9.75e+06,115041,1.01732e+07,4.48125e+26,3.21391e+23,1.49092e+11,0.132838,2.50366e+32,0.03468,0.000726728,1.85784e-07,2.0251e-53,2.69944e+15,1.60706e+16,2.70098e+12,1.87727e+16
9.85e+06,115021,1.01724e+07,4.62008e+26,3.31253e+23,1.5062e+11,0.132858,2.5017e+32,0.03468,0.000726736,1.8579e-07,2.02525e-53,2.69867e+15,1.60666e+16,2.70014e+12,1.87679e+16
9.95e+06,115002,1.01716e+07,4.76173e+26,3.4131e+23,1.52148e+11,0.132878,2.49972e+32,0.03468,0.00072673,1.85784e-07,2.02511e-53,2.69789e+15,1.60625e+16,2.69929e+12,1.87631e+16
1.005e+07,114981,1.01708e+07,4.90623e+26,3.51565e+23,1.53676e+11,0.132899,2.49773e+32,0.03468,0.00072672,1.85775e-07,2.02489e-53,2.69711e+15,1.60585e+16,2.69844e+12,1.87583e+16
1.015e+07,114961,1.017e+07,5.05362e+26,3.62018e+23,1.55204e+11,0.132919,2.49571e+32,0.03468,0.000726714,1.8577e-07,2.02477e-53,2.69631e+15,1.60544e+16,2.69758e+12,1.87534e+16
1.025e+07,114941,1.01692e+07,5.2039e+26,3.72673e+23,1.56732e+11,0.13294,2.49368e+32,0.03468,0.000726699,1.85756e-07,2.02443e-53,2.69551e+15,1.60502e+16,2.69671e+12,1.87484e+16
1.035e+07,114920,1.01684e+07,5.35713e+26,3.8353e+23,1.5826e+11,0.132962,2.49163e+32,0.03468,0.000726674,1.85735e-07,2.02393e-53,2.69471e+15,1.6046e+16,2.69583e+12,1.87434e+16
1.045e+07,114899,1.01675e+07,5.51331e+26,3.94591e+23,1.59788e+11,0.132983,2.48956e+32,0.03468,0.000726683,1.85742e-07,2.02409e-53,2.69389e+15,1.60418e+16,2.69494e+12,1.87384e+16
1.055e+07,114878,1.01667e+07,5.67249e+26,4.05859e+23,1.61316e+11,0.133005,2.48747e+32,0.03468,0.000726676,1.85736e-07,2.02394e-53,2.69307e+15,1.60375e+16,2.69405e+12,1.87333e+16
1.065e+07,114857,1.01658e+07,5.83468e+26,4.17333e+23,1.62844e+11,0.133026,2.48536e+32,0.03468,0.000726666,1.85726e-07,2.02371e-53,2.69224e+15,1.60332e+16,2.69314e+12,1.87281e+16
1.075e+07,114836,1.0165e+07,5.99991e+26,4.29017e+23,1.64372e+11,0.133048,2.48324e+32,0.03468,0.00072666,1.8572e-07,2.02358e-53,2.6914e+15,1.60289e+16,2.69223e+12,1.87229e+16
1.085e+07,114814,1.01641e+07,6.16821e+26,4.40912e+23,1.659e+11,0.133071,2.4811e+32,0.03468,0.000726644,1.85705e-07,2.02322e-53,2.69056e+15,1.60245e+16,2.69131e+12,1.87177e+16
1.095e+07,114792,1.01632e+07,6.33962e+26,4.5302e+23,1.67428e+11,0.133093,2.47894e+32,0.03468,0.000726617,1.85683e-07,2.02269e-53,2.68971e+15,1.602e+16,2.69039e+12,1.87124e+16
1.105e+07,114770,1.01623e+07,6.51415e+26,4.65342e+23,1.68956e+11,0.133116,2.47676e+32,0.03468,0.000726626,1.8569e-07,2.02286e-53,2.68885e+15,1.60156e+16,2.68945e+12,1.87071e+16
