X = 0.734
Y = 0.25
Z = 0.016
mu = 0.601142
Radius,Density,Temp,Mass,Lum,OptD,Kff,KH,Kes,PP,CNO,3a,Deg,Gas,Rad,TotPres
0,0,0,0,0,0,-nan,0,0.03468,0.000157097,2.73021e-10,1.17017e-59,0,0,0,0
1,88000,7.4598e+06,368614,57.9082,28701.3,0.326151,1.3422e+31,0.03468,0.000157097,2.73021e-10,1.17017e-59,1.72712e+15,9.01427e+15,7.80907e+11,1.07422e+16
30001,88000,7.4598e+06,9.95356e+18,1.56368e+15,8.61066e+08,0.326151,1.3422e+31,0.03468,0.000157097,2.73021e-10,1.17017e-59,1.72712e+15,9.01427e+15,7.80907e+11,1.07422e+16
70001,88000,7.4598e+06,1.2644e+20,1.98633e+16,2.00912e+09,0.326151,1.3422e+31,0.03468,0.000157097,2.73021e-10,1.17017e-59,1.72712e+15,9.01426e+15,7.80906e+11,1.07422e+16
150001,87999.8,7.4598e+06,1.24409e+21,1.95443e+17,4.30522e+09,0.326151,1.34219e+31,0.03468,0.000157097,2.73021e-10,1.17017e-59,1.72712e+15,9.01424e+15,7.80904e+11,1.07421e+16
250001,87999.5,7.45978e+06,5.75964e+21,9.04814e+17,7.17534e+09,0.326152,1.34217e+31,0.03468,0.000157097,2.73021e-10,1.17017e-59,1.7271e+15,9.0142e+15,7.80899e+11,1.07421e+16
350001,87999,7.45977e+06,1.58043e+22,2.48277e+18,1.00455e+10,0.326154,1.34213e+31,0.03468,0.000157097,2.73021e-10,1.17017e-59,1.72709e+15,9.01413e+15,7.80892e+11,1.0742e+16
450001,87998.4,7.45974e+06,3.35898e+22,5.2767e+18,1.29156e+10,0.326156,1.34209e+31,0.03468,0.000157097,2.73021e-10,1.17017e-59,1.72707e+15,9.01403e+15,7.80882e+11,1.07419e+16
550001,87997.6,7.45971e+06,6.13274e+22,9.63393e+18,1.57857e+10,0.326158,1.34203e+31,0.03468,0.000157097,2.73021e-10,1.17017e-59,1.72704e+15,9.01392e+15,7.80869e+11,1.07417e+16
650001,87996.7,7.45967e+06,1.01229e+23,1.59017e+19,1.86558e+10,0.326161,1.34197e+31,0.03468,0.000157097,2.73021e-10,1.17016e-59,1.72701e+15,9.01378e+15,7.80854e+11,1.07416e+16
750001,87995.6,7.45963e+06,1.55505e+23,2.44273e+19,2.15259e+10,0.326165,1.34189e+31,0.03468,0.000157097,2.73021e-10,1.17016e-59,1.72698e+15,9.01361e+15,7.80836e+11,1.07414e+16
850001,87994.3,7.45958e+06,2.26367e+23,3.55578e+19,2.4396e+10,0.326169,1.3418e+31,0.03468,0.000157097,2.73021e-10,1.17016e-59,1.72694e+15,9.01343e+15,7.80816e+11,1.07411e+16
950001,87992.9,7.45953e+06,3.16026e+23,4.96401e+19,2.72661e+10,0.326174,1.34171e+31,0.03468,0.000157097,2.73021e-10,1.17016e-59,1.72689e+15,9.01322e+15,7.80793e+11,1.07409e+16
1.05e+06,87991.4,7.45947e+06,4.26692e+23,6.70211e+19,3.01362e+10,0.326179,1.3416e+31,0.03468,0.000157097,2.73021e-10,1.17016e-59,1.72684e+15,9.01299e+15,7.80768e+11,1.07406e+16
1.15e+06,87989.7,7.4594e+06,5.60577e+23,8.80477e+19,3.30063e+10,0.326185,1.34148e+31,0.03468,0.000157097,2.73021e-10,1.17016e-59,1.72678e+15,9.01273e+15,7.80741e+11,1.07403e+16
1.25e+06,87987.8,7.45933e+06,7.1989e+23,1.13066e+20,3.58764e+10,0.326191,1.34135e+31,0.03468,0.000157097,2.73021e-10,1.17016e-59,1.72672e+15,9.01245e+15,7.8071e+11,1.074e+16
1.35e+06,87985.8,7.45925e+06,9.06842e+23,1.42423e+20,3.87465e+10,0.326198,1.3412e+31,0.03468,0.000157097,2.7302e-10,1.17016e-59,1.72666e+15,9.01215e+15,7.80678e+11,1.07396e+16
1.45e+06,87983.6,7.45917e+06,1.12364e+24,1.76465e+20,4.16166e+10,0.326205,1.34105e+31,0.03468,0.000157097,2.7302e-10,1.17016e-59,1.72658e+15,9.01183e+15,7.80642e+11,1.07392e+16
1.55e+06,87981.3,7.45908e+06,1.3725e+24,2.15538e+20,4.44866e+10,0.326213,1.34089e+31,0.03468,0.000157097,2.7302e-10,1.17015e-59,1.72651e+15,9.01148e+15,7.80605e+11,1.07388e+16
1.65e+06,87978.8,7.45898e+06,1.65562e+24,2.59988e+20,4.73567e+10,0.326221,1.34071e+31,0.03468,0.000157097,2.7302e-10,1.17015e-59,1.72643e+15,9.01111e+15,7.80564e+11,1.07383e+16
1.75e+06,87976.2,7.45888e+06,1.97522e+24,3.10159e+20,5.02267e+10,0.32623,1.34053e+31,0.03468,0.000157097,2.73019e-10,1.17015e-59,1.72634e+15,9.01071e+15,7.80522e+11,1.07378e+16
1.85e+06,87973.4,7.45877e+06,2.3335e+24,3.66399e+20,5.30968e+10,0.326239,1.34033e+31,0.03468,0.000157096,2.73018e-10,1.17013e-59,1.72625e+15,9.0103e+15,7.80476e+11,1.07373e+16
1.95e+06,87970.4,7.45866e+06,2.73268e+24,4.29052e+20,5.59668e+10,0.326249,1.34012e+31,0.03468,0.000157096,2.73017e-10,1.17012e-59,1.72615e+15,9.00986e+15,7.80429e+11,1.07368e+16
2.05e+06,87967.3,7.45854e+06,3.17495e+24,4.98462e+20,5.88368e+10,0.326259,1.33991e+31,0.03468,0.000157096,2.73017e-10,1.17012e-59,1.72605e+15,9.00939e+15,7.80378e+11,1.07362e+16
2.15e+06,87964,7.45841e+06,3.66253e+24,5.74975e+20,6.17069e+10,0.32627,1.33968e+31,0.03468,0.000157096,2.73016e-10,1.17011e-59,1.72595e+15,9.00891e+15,7.80325e+11,1.07356e+16
2.25e+06,87960.6,7.45828e+06,4.19762e+24,6.58935e+20,6.45769e+10,0.326281,1.33944e+31,0.03468,0.000157096,2.73014e-10,1.1701e-59,1.72583e+15,9.0084e+15,7.8027e+11,1.0735e+16
2.35e+06,87957.1,7.45814e+06,4.78243e+24,7.50685e+20,6.74468e+10,0.326293,1.33919e+31,0.03468,0.000157096,2.73013e-10,1.17009e-59,1.72572e+15,9.00787e+15,7.80212e+11,1.07344e+16
2.45e+06,87953.3,7.458e+06,5.41916e+24,8.50571e+20,7.03168e+10,0.326306,1.33893e+31,0.03468,0.000157095,2.7301e-10,1.17006e-59,1.72559e+15,9.00731e+15,7.80152e+11,1.07337e+16
2.55e+06,87949.5,7.45785e+06,6.11002e+24,9.58934e+20,7.31868e+10,0.326319,1.33865e+31,0.03468,0.000157095,2.73007e-10,1.17003e-59,1.72547e+15,9.00673e+15,7.80089e+11,1.0733e+16
2.65e+06,87945.4,7.45769e+06,6.85722e+24,1.07612e+21,7.60567e+10,0.326332,1.33837e+31,0.03468,0.000157095,2.73008e-10,1.17004e-59,1.72534e+15,9.00613e+15,7.80024e+11,1.07322e+16
2.75e+06,87941.2,7.45753e+06,7.66295e+24,1.20247e+21,7.89267e+10,0.326346,1.33808e+31,0.03468,0.000157094,2.73006e-10,1.17002e-59,1.7252e+15,9.0055e+15,7.79956e+11,1.07315e+16
2.85e+06,87936.9,7.45736e+06,8.52942e+24,1.33832e+21,8.17966e+10,0.326361,1.33777e+31,0.03468,0.000157094,2.73004e-10,1.17e-59,1.72506e+15,9.00486e+15,7.79885e+11,1.07307e+16
2.95e+06,87932.4,7.45719e+06,9.45884e+24,1.48402e+21,8.46665e+10,0.326376,1.33746e+31,0.03468,0.000157094,2.73002e-10,1.16999e-59,1.72491e+15,9.00419e+15,7.79812e+11,1.07299e+16
3.05e+06,87927.8,7.45701e+06,1.04534e+25,1.63992e+21,8.75364e+10,0.326391,1.33713e+31,0.03468,0.000157093,2.72998e-10,1.16994e-59,1.72476e+15,9.00349e+15,7.79737e+11,1.0729e+16
3.15e+06,87922.9,7.45682e+06,1.15153e+25,1.80634e+21,9.04063e+10,0.326407,1.33679e+31,0.03468,0.000157092,2.72992e-10,1.16989e-59,1.7246e+15,9.00278e+15,7.79659e+11,1.07282e+16
3.25e+06,87918,7.45663e+06,1.26468e+25,1.98363e+21,9.32761e+10,0.326424,1.33644e+31,0.03468,0.000157092,2.72994e-10,1.16991e-59,1.72444e+15,9.00204e+15,7.79579e+11,1.07273e+16
3.35e+06,87912.9,7.45643e+06,1.38499e+25,2.17214e+21,9.6146e+10,0.326441,1.33609e+31,0.03468,0.000157092,2.72991e-10,1.16989e-59,1.72427e+15,9.00127e+15,7.79496e+11,1.07263e+16
3.45e+06,87907.6,7.45622e+06,1.51271e+25,2.3722e+21,9.90158e+10,0.326458,1.33572e+31,0.03468,0.000157092,2.72988e-10,1.16985e-59,1.7241e+15,9.00049e+15,7.7941e+11,1.07254e+16
3.55e+06,87902.2,7.45601e+06,1.64804e+25,2.58414e+21,1.01886e+11,0.326477,1.33534e+31,0.03468,0.000157091,2.72986e-10,1.16984e-59,1.72392e+15,8.99968e+15,7.79322e+11,1.07244e+16
3.65e+06,87896.6,7.4558e+06,1.7912e+25,2.80832e+21,1.04755e+11,0.326495,1.33494e+31,0.03468,0.00015709,2.7298e-10,1.16978e-59,1.72374e+15,8.99884e+15,7.79232e+11,1.07234e+16
3.75e+06,87890.9,7.45558e+06,1.94242e+25,3.04507e+21,1.07625e+11,0.326514,1.33454e+31,0.03468,0.000157089,2.72972e-10,1.16971e-59,1.72355e+15,8.99799e+15,7.79139e+11,1.07223e+16
3.85e+06,87885,7.45535e+06,2.10191e+25,3.29472e+21,1.10495e+11,0.326534,1.33413e+31,0.03468,0.000157089,2.72975e-10,1.16973e-59,1.72336e+15,8.99711e+15,7.79044e+11,1.07213e+16
3.95e+06,87878.9,7.45511e+06,2.26989e+25,3.55762e+21,1.13365e+11,0.326554,1.33371e+31,0.03468,0.000157089,2.72972e-10,1.1697e-59,1.72316e+15,8.99621e+15,7.78946e+11,1.07202e+16
4.05e+06,87872.7,7.45487e+06,2.44658e+25,3.8341e+21,1.16234e+11,0.326575,1.33327e+31,0.03468,0.000157088,2.72968e-10,1.16966e-59,1.72296e+15,8.99529e+15,7.78845e+11,1.0719e+16
4.15e+06,87866.4,7.45463e+06,2.63221e+25,4.12449e+21,1.19104e+11,0.326596,1.33283e+31,0.03468,0.000157088,2.72965e-10,1.16964e-59,1.72275e+15,8.99434e+15,7.78742e+11,1.07179e+16
4.25e+06,87859.9,7.45437e+06,2.82698e+25,4.42913e+21,1.21974e+11,0.326618,1.33237e+31,0.03468,0.000157087,2.72958e-10,1.16957e-59,1.72254e+15,8.99337e+15,7.78637e+11,1.07167e+16
4.35e+06,87853.2,7.45412e+06,3.03113e+25,4.74837e+21,1.24843e+11,0.32664,1.33191e+31,0.03468,0.000157085,2.72948e-10,1.16948e-59,1.72232e+15,8.99238e+15,7.78529e+11,1.07155e+16
4.45e+06,87846.4,7.45385e+06,3.24487e+25,5.08252e+21,1.27713e+11,0.326663,1.33143e+31,0.03468,0.000157086,2.72951e-10,1.16951e-59,1.7221e+15,8.99136e+15,7.78418e+11,1.07142e+16
4.55e+06,87839.5,7.45358e+06,3.46841e+25,5.43193e+21,1.30583e+11,0.326686,1.33094e+31,0.03468,0.000157085,2.72948e-10,1.16947e-59,1.72187e+15,8.99032e+15,7.78306e+11,1.0713e+16
4.65e+06,87832.3,7.45331e+06,3.70198e+25,5.79693e+21,1.33452e+11,0.32671,1.33045e+31,0.03468,0.000157084,2.72942e-10,1.16943e-59,1.72164e+15,8.98926e+15,7.7819e+11,1.07117e+16
4.75e+06,87825.1,7.45302e+06,3.94579e+25,6.17785e+21,1.36322e+11,0.326735,1.32994e+31,0.03468,0.000157084,2.7294e-10,1.1694e-59,1.7214e+15,8.98817e+15,7.78072e+11,1.07104e+16
4.85e+06,87817.6,7.45273e+06,4.20007e+25,6.57503e+21,1.39191e+11,0.32676,1.32942e+31,0.03468,0.000157082,2.72931e-10,1.16932e-59,1.72116e+15,8.98707e+15,7.77952e+11,1.0709e+16
4.95e+06,87810.1,7.45244e+06,4.46503e+25,6.98879e+21,1.42061e+11,0.326785,1.32889e+31,0.03468,0.00015708,2.72919e-10,1.1692e-59,1.72091e+15,8.98594e+15,7.77829e+11,1.07076e+16
5.05e+06,87802.3,7.45214e+06,4.74089e+25,7.41947e+21,1.4493e+11,0.326811,1.32835e+31,0.03468,0.000157081,2.72922e-10,1.16924e-59,1.72066e+15,8.98478e+15,7.77704e+11,1.07062e+16
5.15e+06,87794.4,7.45183e+06,5.02787e+25,7.86739e+21,1.478e+11,0.326837,1.3278e+31,0.03468,0.00015708,2.72919e-10,1.1692e-59,1.7204e+15,8.98361e+15,7.77576e+11,1.07048e+16
5.25e+06,87786.4,7.45152e+06,5.32619e+25,8.33289e+21,1.50669e+11,0.326864,1.32724e+31,0.03468,0.000157079,2.72912e-10,1.16914e-59,1.72014e+15,8.98241e+15,7.77446e+11,1.07033e+16
5.35e+06,87778.2,7.4512e+06,5.63606e+25,8.81629e+21,1.53539e+11,0.326892,1.32666e+31,0.03468,0.000157079,2.72909e-10,1.16911e-59,1.71987e+15,8.98119e+15,7.77313e+11,1.07018e+16
5.45e+06,87769.9,7.45088e+06,5.9577e+25,9.31793e+21,1.56408e+11,0.32692,1.32608e+31,0.03468,0.000157077,2.72899e-10,1.16902e-59,1.7196e+15,8.97994e+15,7.77177e+11,1.07003e+16
5.55e+06,87761.4,7.45055e+06,6.29134e+25,9.83812e+21,1.59278e+11,0.326948,1.32549e+31,0.03468,0.000157075,2.72884e-10,1.16888e-59,1.71932e+15,8.97867e+15,7.7704e+11,1.06988e+16
5.65e+06,87752.7,7.45021e+06,6.63718e+25,1.03772e+22,1.62147e+11,0.326978,1.32489e+31,0.03468,0.000157076,2.72889e-10,1.16892e-59,1.71904e+15,8.97738e+15,7.76899e+11,1.06972e+16
5.75e+06,87743.9,7.44987e+06,6.99545e+25,1.09355e+22,1.65016e+11,0.327007,1.32427e+31,0.03468,0.000157075,2.72884e-10,1.16888e-59,1.71875e+15,8.97607e+15,7.76757e+11,1.06956e+16
5.85e+06,87734.9,7.44952e+06,7.36637e+25,1.15133e+22,1.67885e+11,0.327037,1.32365e+31,0.03468,0.000157074,2.72877e-10,1.16882e-59,1.71846e+15,8.97473e+15,7.76612e+11,1.0694e+16
5.95e+06,87725.8,7.44917e+06,7.75014e+25,1.2111e+22,1.70755e+11,0.327068,1.32301e+31,0.03468,0.000157073,2.72873e-10,1.16878e-59,1.71816e+15,8.97337e+15,7.76464e+11,1.06923e+16
6.05e+06,87716.5,7.44881e+06,8.14699e+25,1.27289e+22,1.73624e+11,0.327099,1.32237e+31,0.03468,0.000157071,2.72862e-10,1.16867e-59,1.71786e+15,8.97199e+15,7.76314e+11,1.06906e+16
6.15e+06,87707.1,7.44844e+06,8.55714e+25,1.33673e+22,1.76493e+11,0.327131,1.32171e+31,0.03468,0.000157068,2.72845e-10,1.16852e-59,1.71755e+15,8.97059e+15,7.76161e+11,1.06889e+16
6.25e+06,87697.5,7.44807e+06,8.9808e+25,1.40265e+22,1.79362e+11,0.327163,1.32104e+31,0.03468,0.000157069,2.72851e-10,1.16856e-59,1.71724e+15,8.96916e+15,7.76006e+11,1.06872e+16
6.35e+06,87687.8,7.44769e+06,9.41818e+25,1.47068e+22,1.82231e+11,0.327196,1.32037e+31,0.03468,0.000157069,2.72846e-10,1.16852e-59,1.71692e+15,8.96771e+15,7.75849e+11,1.06854e+16
6.45e+06,87677.9,7.44731e+06,9.86951e+25,1.54086e+22,1.85101e+11,0.327229,1.31968e+31,0.03468,0.000157067,2.72838e-10,1.16844e-59,1.7166e+15,8.96624e+15,7.75689e+11,1.06836e+16
6.55e+06,87667.9,7.44692e+06,1.0335e+26,1.61323e+22,1.8797e+11,0.327263,1.31898e+31,0.03468,0.000157067,2.72833e-10,1.1684e-59,1.71627e+15,8.96474e+15,7.75526e+11,1.06818e+16
6.65e+06,87657.7,7.44652e+06,1.08149e+26,1.6878e+22,1.90839e+11,0.327297,1.31828e+31,0.03468,0.000157065,2.7282e-10,1.16828e-59,1.71594e+15,8.96322e+15,7.75361e+11,1.06799e+16
6.75e+06,87647.4,7.44612e+06,1.13093e+26,1.76461e+22,1.93708e+11,0.327332,1.31756e+31,0.03468,0.000157061,2.72802e-10,1.16811e-59,1.7156e+15,8.96168e+15,7.75194e+11,1.06781e+16
6.85e+06,87636.9,7.44571e+06,1.18186e+26,1.8437e+22,1.96577e+11,0.327367,1.31683e+31,0.03468,0.000157062,2.72808e-10,1.16816e-59,1.71526e+15,8.96012e+15,7.75024e+11,1.06761e+16
6.95e+06,87626.2,7.4453e+06,1.23429e+26,1.92509e+22,1.99446e+11,0.327403,1.31609e+31,0.03468,0.000157062,2.72802e-10,1.16811e-59,1.71491e+15,8.95853e+15,7.74852e+11,1.06742e+16
7.05e+06,87615.4,7.44488e+06,1.28824e+26,2.00882e+22,2.02314e+11,0.327439,1.31534e+31,0.03468,0.00015706,2.72793e-10,1.16802e-59,1.71456e+15,8.95692e+15,7.74677e+11,1.06723e+16
7.15e+06,87604.5,7.44445e+06,1.34374e+26,2.09492e+22,2.05183e+11,0.327476,1.31458e+31,0.03468,0.000157059,2.72788e-10,1.16798e-59,1.7142e+15,8.95529e+15,7.745e+11,1.06703e+16
7.25e+06,87593.4,7.44402e+06,1.40081e+26,2.18342e+22,2.08052e+11,0.327514,1.31381e+31,0.03468,0.000157057,2.72774e-10,1.16784e-59,1.71384e+15,8.95363e+15,7.7432e+11,1.06682e+16
7.35e+06,87582.1,7.44358e+06,1.45947e+26,2.27435e+22,2.10921e+11,0.327551,1.31303e+31,0.03468,0.000157053,2.72753e-10,1.16765e-59,1.71347e+15,8.95196e+15,7.74138e+11,1.06662e+16
7.45e+06,87570.7,7.44314e+06,1.51973e+26,2.36774e+22,2.1379e+11,0.32759,1.31224e+31,0.03468,0.000157055,2.7276e-10,1.16771e-59,1.7131e+15,8.95026e+15,7.73953e+11,1.06641e+16
7.55e+06,87559.1,7.44269e+06,1.58163e+26,2.46363e+22,2.16658e+11,0.327629,1.31144e+31,0.03468,0.000157054,2.72753e-10,1.16765e-59,1.71272e+15,8.94853e+15,7.73766e+11,1.0662e+16
7.65e+06,87547.4,7.44223e+06,1.64518e+26,2.56204e+22,2.19527e+11,0.327668,1.31063e+31,0.03468,0.000157052,2.72743e-10,1.16756e-59,1.71234e+15,8.94679e+15,7.73577e+11,1.06599e+16
7.75e+06,87535.5,7.44177e+06,1.7104e+26,2.663e+22,2.22396e+11,0.327709,1.30981e+31,0.03468,0.000157051,2.72738e-10,1.16751e-59,1.71196e+15,8.94502e+15,7.73385e+11,1.06577e+16
7.85e+06,87523.5,7.4413e+06,1.77732e+26,2.76655e+22,2.25264e+11,0.327749,1.30898e+31,0.03468,0.000157049,2.72722e-10,1.16736e-59,1.71156e+15,8.94323e+15,7.7319e+11,1.06556e+16
7.95e+06,87511.4,7.44083e+06,1.84596e+26,2.87271e+22,2.28133e+11,0.32779,1.30814e+31,0.03468,0.000157045,2.727e-10,1.16715e-59,1.71117e+15,8.94142e+15,7.72994e+11,1.06534e+16
8.05e+06,87499,7.44035e+06,1.91634e+26,2.98152e+22,2.31001e+11,0.327832,1.30729e+31,0.03468,0.000157046,2.72707e-10,1.16722e-59,1.71077e+15,8.93958e+15,7.72794e+11,1.06511e+16
8.15e+06,87486.6,7.43987e+06,1.98848e+26,3.09301e+22,2.3387e+11,0.327874,1.30643e+31,0.03468,0.000157045,2.727e-10,1.16715e-59,1.71036e+15,8.93773e+15,7.72593e+11,1.06489e+16
8.25e+06,87473.9,7.43937e+06,2.06239e+26,3.20721e+22,2.36738e+11,0.327917,1.30556e+31,0.03468,0.000157043,2.72689e-10,1.16705e-59,1.70995e+15,8.93584e+15,7.72389e+11,1.06466e+16
8.35e+06,87461.1,7.43888e+06,2.13812e+26,3.32414e+22,2.39607e+11,0.32796,1.30468e+31,0.03468,0.000157042,2.72683e-10,1.16699e-59,1.70953e+15,8.93394e+15,7.72182e+11,1.06442e+16
8.45e+06,87448.2,7.43837e+06,2.21566e+26,3.44384e+22,2.42475e+11,0.328004,1.30379e+31,0.03468,0.00015704,2.72666e-10,1.16683e-59,1.70911e+15,8.93202e+15,7.71973e+11,1.06419e+16
8.55e+06,87435.1,7.43786e+06,2.29505e+26,3.56633e+22,2.45343e+11,0.328048,1.30289e+31,0.03468,0.000157035,2.72641e-10,1.1666e-59,1.70868e+15,8.93007e+15,7.71762e+11,1.06395e+16
8.65e+06,87421.9,7.43735e+06,2.37631e+26,3.69166e+22,2.48212e+11,0.328093,1.30198e+31,0.03468,0.000157037,2.72649e-10,1.16667e-59,1.70825e+15,8.9281e+15,7.71548e+11,1.06371e+16
8.75e+06,87408.5,7.43683e+06,2.45946e+26,3.81983e+22,2.5108e+11,0.328138,1.30106e+31,0.03468,0.000157036,2.72642e-10,1.1666e-59,1.70782e+15,8.92611e+15,7.71332e+11,1.06347e+16
8.85e+06,87395,7.4363e+06,2.54451e+26,3.9509e+22,2.53948e+11,0.328184,1.30013e+31,0.03468,0.000157034,2.7263e-10,1.16649e-59,1.70738e+15,8.92409e+15,7.71113e+11,1.06322e+16
8.95e+06,87381.3,7.43577e+06,2.6315e+26,4.08488e+22,2.56816e+11,0.32823,1.29919e+31,0.03468,0.000157033,2.72623e-10,1.16643e-59,1.70693e+15,8.92205e+15,7.70892e+11,1.06298e+16
9.05e+06,87367.4,7.43523e+06,2.72044e+26,4.22181e+22,2.59684e+11,0.328277,1.29824e+31,0.03468,0.00015703,2.72605e-10,1.16626e-59,1.70648e+15,8.91999e+15,7.70669e+11,1.06272e+16
9.15e+06,87353.5,7.43468e+06,2.81135e+26,4.36171e+22,2.62553e+11,0.328324,1.29728e+31,0.03468,0.000157025,2.72578e-10,1.16601e-59,1.70602e+15,8.91791e+15,7.70443e+11,1.06247e+16
9.25e+06,87339.3,7.43413e+06,2.90425e+26,4.50461e+22,2.65421e+11,0.328372,1.29631e+31,0.03468,0.000157027,2.72587e-10,1.16609e-59,1.70556e+15,8.91581e+15,7.70214e+11,1.06221e+16
9.35e+06,87325,7.43358e+06,2.99917e+26,4.65055e+22,2.68289e+11,0.328421,1.29533e+31,0.03468,0.000157025,2.72579e-10,1.16601e-59,1.7051e+15,8.91368e+15,7.69984e+11,1.06195e+16
9.45e+06,87310.6,7.43301e+06,3.09612e+26,4.79955e+22,2.71156e+11,0.32847,1.29434e+31,0.03468,0.000157024,2.72566e-10,1.16589e-59,1.70463e+15,8.91153e+15,7.69751e+11,1.06169e+16
9.55e+06,87296,7.43245e+06,3.19514e+26,4.95163e+22,2.74024e+11,0.328519,1.29334e+31,0.03468,0.000157022,2.72559e-10,1.16583e-59,1.70415e+15,8.90936e+15,7.69515e+11,1.06143e+16
9.65e+06,87281.2,7.43187e+06,3.29623e+26,5.10684e+22,2.76892e+11,0.328569,1.29233e+31,0.03468,0.000157019,2.72539e-10,1.16564e-59,1.70367e+15,8.90717e+15,7.69277e+11,1.06116e+16
9.75e+06,87266.3,7.43129e+06,3.39942e+26,5.2652e+22,2.7976e+11,0.32862,1.29131e+31,0.03468,0.000157014,2.7251e-10,1.16537e-59,1.70319e+15,8.90495e+15,7.69037e+11,1.06089e+16
9.85e+06,87251.3,7.4307e+06,3.50473e+26,5.42672e+22,2.82628e+11,0.328671,1.29028e+31,0.03468,0.000157016,2.72519e-10,1.16546e-59,1.7027e+15,8.90271e+15,7.68794e+11,1.06062e+16
9.95e+06,87236.1,7.43011e+06,3.61219e+26,5.59146e+22,2.85495e+11,0.328723,1.28925e+31,0.03468,0.000157014,2.72511e-10,1.16538e-59,1.70221e+15,8.90045e+15,7.68549e+11,1.06034e+16
1.005e+07,87220.7,7.42951e+06,3.7218e+26,5.75942e+22,2.88363e+11,0.328775,1.2882e+31,0.03468,0.000157012,2.72497e-10,1.16525e-59,1.70171e+15,8.89817e+15,7.68301e+11,1.06006e+16
1.015e+07,87205.2,7.42891e+06,3.8336e+26,5.93065e+22,2.91231e+11,0.328827,1.28714e+31,0.03468,0.000157011,2.72489e-10,1.16518e-59,1.7012e+15,8.89586e+15,7.68052e+11,1.05978e+16
1.025e+07,87189.6,7.4283e+06,3.9476e+26,6.10516e+22,2.94098e+11,0.328881,1.28608e+31,0.03468,0.000157008,2.72468e-10,1.16498e-59,1.70069e+15,8.89354e+15,7.67799e+11,1.0595e+16
1.035e+07,87173.8,7.42768e+06,4.06383e+26,6.28299e+22,2.96966e+11,0.328934,1.285e+31,0.03468,0.000157002,2.72437e-10,1.16469e-59,1.70018e+15,8.89119e+15,7.67545e+11,1.05921e+16
1.045e+07,87157.8,7.42706e+06,4.18231e+26,6.46416e+22,2.99833e+11,0.328989,1.28391e+31,0.03468,0.000157004,2.72447e-10,1.16478e-59,1.69966e+15,8.88882e+15,7.67288e+11,1.05892e+16
1.055e+07,87141.7,7.42643e+06,4.30305e+26,6.64871e+22,3.027e+11,0.329043,1.28282e+31,0.03468,0.000157003,2.72438e-10,1.1647e-59,1.69914e+15,8.88642e+15,7.67028e+11,1.05863e+16
1.065e+07,87125.5,7.4258e+06,4.42608e+26,6.83665e+22,3.05568e+11,0.329099,1.28172e+31,0.03468,0.000157001,2.72423e-10,1.16456e-59,1.69861e+15,8.88401e+15,7.66766e+11,1.05834e+16
1.075e+07,87109.1,7.42516e+06,4.55142e+26,7.02802e+22,3.08435e+11,0.329155,1.2806e+31,0.03468,0.000156999,2.72415e-10,1.16448e-59,1.69808e+15,8.88157e+15,7.66502e+11,1.05804e+16
1.085e+07,87092.5,7.42451e+06,4.67909e+26,7.22283e+22,3.11302e+11,0.329211,1.27948e+31,0.03468,0.000156996,2.72392e-10,1.16427e-59,1.69754e+15,8.87911e+15,7.66236e+11,1.05774e+16
1.095e+07,87075.8,7.42386e+06,4.80911e+26,7.42113e+22,3.14169e+11,0.329268,1.27835e+31,0.03468,0.00015699,2.7236e-10,1.16396e-59,1.697e+15,8.87663e+15,7.65967e+11,1.05744e+16
