X = 0.734
Y = 0.25
Z = 0.016
mu = 0.601142
Radius,Density,Temp,Mass,Lum,OptD,Kff,KH,Kes,PP,CNO,3a,Deg,Gas,Rad,TotPres
0,0,0,0,0,0,-nan,0,0.03468,0.0024562,2.44611e-05,9.23703e-49,0,0,0,0
1,156000,1.28556e+07,653451,1620.99,11306.3,0.0724761,2.39558e+33,0.03468,0.0024562,2.44611e-05,9.23703e-49,4.48462e+15,2.75382e+16,6.88738e+12,3.20297e+16
30001,156000,1.28556e+07,1.76449e+19,4.37712e+16,3.39199e+08,0.0724761,2.39558e+33,0.03468,0.0024562,2.44611e-05,9.23703e-49,4.48462e+15,2.75382e+16,6.88738e+12,3.20297e+16
70001,156000,1.28556e+07,2.24143e+20,5.56024e+17,7.9145e+08,0.0724761,2.39558e+33,0.03468,0.0024562,2.44611e-05,9.23703e-49,4.48462e+15,2.75382e+16,6.88737e+12,3.20297e+16
150001,156000,1.28555e+07,2.20544e+21,5.47093e+18,1.69595e+09,0.0724762,2.39556e+33,0.03468,0.0024562,2.44611e-05,9.23703e-49,4.48461e+15,2.75381e+16,6.88735e+12,3.20296e+16
250001,155999,1.28555e+07,1.02103e+22,2.5328e+19,2.82658e+09,0.0724765,2.39552e+33,0.03468,0.0024562,2.44611e-05,9.23703e-49,4.48458e+15,2.7538e+16,6.88731e+12,3.20295e+16
350001,155998,1.28555e+07,2.80168e+22,6.94988e+19,3.9572e+09,0.0724768,2.39546e+33,0.03468,0.0024562,2.44611e-05,9.23702e-49,4.48454e+15,2.75378e+16,6.88724e+12,3.20292e+16
450001,155997,1.28554e+07,5.95455e+22,1.47707e+20,5.08783e+09,0.0724773,2.39537e+33,0.03468,0.0024562,2.44611e-05,9.23702e-49,4.48448e+15,2.75375e+16,6.88714e+12,3.20288e+16
550001,155996,1.28554e+07,1.08717e+23,2.69676e+20,6.21845e+09,0.0724779,2.39527e+33,0.03468,0.0024562,2.44611e-05,9.23702e-49,4.48441e+15,2.75371e+16,6.88703e+12,3.20284e+16
650001,155994,1.28553e+07,1.79451e+23,4.45126e+20,7.34907e+09,0.0724786,2.39515e+33,0.03468,0.0024562,2.4461e-05,9.23702e-49,4.48432e+15,2.75366e+16,6.88689e+12,3.20278e+16
750001,155992,1.28553e+07,2.75667e+23,6.83775e+20,8.47969e+09,0.0724794,2.395e+33,0.03468,0.0024562,2.4461e-05,9.23701e-49,4.48422e+15,2.75361e+16,6.88672e+12,3.20272e+16
850001,155989,1.28552e+07,4.01286e+23,9.95338e+20,9.61031e+09,0.0724804,2.39484e+33,0.03468,0.0024562,2.4461e-05,9.23701e-49,4.48411e+15,2.75355e+16,6.88653e+12,3.20265e+16
950001,155987,1.28551e+07,5.60226e+23,1.38953e+21,1.07409e+10,0.0724815,2.39465e+33,0.03468,0.0024562,2.4461e-05,9.23701e-49,4.48398e+15,2.75348e+16,6.88632e+12,3.20257e+16
1.05e+06,155984,1.2855e+07,7.56406e+23,1.87605e+21,1.18715e+10,0.0724827,2.39445e+33,0.03468,0.0024562,2.4461e-05,9.237e-49,4.48384e+15,2.75341e+16,6.88609e+12,3.20248e+16
1.15e+06,155980,1.28548e+07,9.93746e+23,2.46462e+21,1.30022e+10,0.072484,2.39422e+33,0.03468,0.0024562,2.4461e-05,9.23699e-49,4.48369e+15,2.75332e+16,6.88583e+12,3.20238e+16
1.25e+06,155977,1.28547e+07,1.27616e+24,3.16493e+21,1.41328e+10,0.0724854,2.39397e+33,0.03468,0.0024562,2.4461e-05,9.23697e-49,4.48352e+15,2.75323e+16,6.88555e+12,3.20227e+16
1.35e+06,155973,1.28546e+07,1.60757e+24,3.98667e+21,1.52634e+10,0.072487,2.39371e+33,0.03468,0.0024562,2.4461e-05,9.23695e-49,4.48334e+15,2.75314e+16,6.88525e+12,3.20216e+16
1.45e+06,155969,1.28544e+07,1.99189e+24,4.93953e+21,1.6394e+10,0.0724887,2.39342e+33,0.03468,0.0024562,2.4461e-05,9.23695e-49,4.48314e+15,2.75303e+16,6.88492e+12,3.20203e+16
1.55e+06,155965,1.28542e+07,2.43304e+24,6.03321e+21,1.75246e+10,0.0724905,2.39311e+33,0.03468,0.0024562,2.44609e-05,9.23693e-49,4.48293e+15,2.75292e+16,6.88457e+12,3.2019e+16
1.65e+06,155960,1.28541e+07,2.93494e+24,7.27738e+21,1.86552e+10,0.0724924,2.39278e+33,0.03468,0.0024562,2.44609e-05,9.23689e-49,4.4827e+15,2.7528e+16,6.88419e+12,3.20176e+16
1.75e+06,155955,1.28539e+07,3.50149e+24,8.6817e+21,1.97857e+10,0.0724944,2.39243e+33,0.03468,0.0024562,2.44609e-05,9.23686e-49,4.48246e+15,2.75267e+16,6.8838e+12,3.2016e+16
1.85e+06,155950,1.28537e+07,4.13661e+24,1.02558e+22,2.09163e+10,0.0724966,2.39206e+33,0.03468,0.00245619,2.44607e-05,9.23674e-49,4.48221e+15,2.75253e+16,6.88338e+12,3.20144e+16
1.95e+06,155944,1.28535e+07,4.84423e+24,1.20095e+22,2.20469e+10,0.0724989,2.39167e+33,0.03468,0.00245619,2.44606e-05,9.23666e-49,4.48194e+15,2.75239e+16,6.88293e+12,3.20127e+16
2.05e+06,155938,1.28533e+07,5.62824e+24,1.39522e+22,2.31775e+10,0.0725013,2.39126e+33,0.03468,0.00245619,2.44606e-05,9.23666e-49,4.48166e+15,2.75224e+16,6.88246e+12,3.2011e+16
2.15e+06,155932,1.2853e+07,6.49256e+24,1.60938e+22,2.43081e+10,0.0725038,2.39083e+33,0.03468,0.00245619,2.44605e-05,9.2366e-49,4.48137e+15,2.75208e+16,6.88197e+12,3.20091e+16
2.25e+06,155926,1.28528e+07,7.4411e+24,1.84437e+22,2.54386e+10,0.0725064,2.39038e+33,0.03468,0.00245619,2.44604e-05,9.23649e-49,4.48106e+15,2.75192e+16,6.88146e+12,3.20071e+16
2.35e+06,155919,1.28525e+07,8.47777e+24,2.10117e+22,2.65692e+10,0.0725092,2.38991e+33,0.03468,0.00245618,2.44603e-05,9.23642e-49,4.48073e+15,2.75174e+16,6.88092e+12,3.20051e+16
2.45e+06,155912,1.28523e+07,9.60649e+24,2.38073e+22,2.76997e+10,0.0725121,2.38941e+33,0.03468,0.00245617,2.446e-05,9.23617e-49,4.4804e+15,2.75156e+16,6.88036e+12,3.20029e+16
2.55e+06,155904,1.2852e+07,1.08312e+25,2.68401e+22,2.88303e+10,0.0725151,2.3889e+33,0.03468,0.00245616,2.44597e-05,9.2359e-49,4.48005e+15,2.75138e+16,6.87977e+12,3.20007e+16
2.65e+06,155897,1.28517e+07,1.21557e+25,3.01198e+22,2.99608e+10,0.0725182,2.38837e+33,0.03468,0.00245617,2.44598e-05,9.23596e-49,4.47968e+15,2.75118e+16,6.87917e+12,3.19984e+16
2.75e+06,155889,1.28514e+07,1.3584e+25,3.36559e+22,3.10914e+10,0.0725214,2.38782e+33,0.03468,0.00245616,2.44596e-05,9.23584e-49,4.4793e+15,2.75098e+16,6.87854e+12,3.1996e+16
2.85e+06,155881,1.28511e+07,1.51199e+25,3.7458e+22,3.22219e+10,0.0725248,2.38724e+33,0.03468,0.00245616,2.44594e-05,9.23565e-49,4.47891e+15,2.75077e+16,6.87788e+12,3.19935e+16
2.95e+06,155872,1.28508e+07,1.67674e+25,4.15356e+22,3.33524e+10,0.0725283,2.38665e+33,0.03468,0.00245615,2.44593e-05,9.23554e-49,4.4785e+15,2.75055e+16,6.8772e+12,3.19909e+16
3.05e+06,155863,1.28505e+07,1.85304e+25,4.58984e+22,3.44829e+10,0.0725319,2.38603e+33,0.03468,0.00245614,2.44588e-05,9.23519e-49,4.47808e+15,2.75033e+16,6.8765e+12,3.19882e+16
3.15e+06,155854,1.28501e+07,2.04128e+25,5.05557e+22,3.56134e+10,0.0725356,2.3854e+33,0.03468,0.00245612,2.44583e-05,9.23473e-49,4.47765e+15,2.75009e+16,6.87578e+12,3.19854e+16
3.25e+06,155845,1.28498e+07,2.24184e+25,5.55173e+22,3.67439e+10,0.0725395,2.38474e+33,0.03468,0.00245613,2.44584e-05,9.23486e-49,4.4772e+15,2.74985e+16,6.87503e+12,3.19826e+16
3.35e+06,155835,1.28494e+07,2.45512e+25,6.07925e+22,3.78744e+10,0.0725434,2.38407e+33,0.03468,0.00245612,2.44582e-05,9.2347e-49,4.47673e+15,2.7496e+16,6.87426e+12,3.19797e+16
3.45e+06,155825,1.28491e+07,2.68151e+25,6.63908e+22,3.90049e+10,0.0725475,2.38337e+33,0.03468,0.00245612,2.44579e-05,9.23443e-49,4.47626e+15,2.74935e+16,6.87347e+12,3.19766e+16
3.55e+06,155815,1.28487e+07,2.92139e+25,7.23218e+22,4.01354e+10,0.0725517,2.38266e+33,0.03468,0.00245611,2.44577e-05,9.23428e-49,4.47577e+15,2.74909e+16,6.87265e+12,3.19735e+16
3.65e+06,155805,1.28483e+07,3.17516e+25,7.85949e+22,4.12658e+10,0.072556,2.38192e+33,0.03468,0.00245609,2.44572e-05,9.23383e-49,4.47526e+15,2.74882e+16,6.87181e+12,3.19703e+16
3.75e+06,155794,1.28479e+07,3.4432e+25,8.52196e+22,4.23963e+10,0.0725605,2.38116e+33,0.03468,0.00245607,2.44564e-05,9.23319e-49,4.47474e+15,2.74854e+16,6.87094e+12,3.1967e+16
3.85e+06,155783,1.28475e+07,3.72591e+25,9.22053e+22,4.35267e+10,0.0725651,2.38039e+33,0.03468,0.00245608,2.44567e-05,9.23339e-49,4.47421e+15,2.74825e+16,6.87006e+12,3.19636e+16
3.95e+06,155771,1.2847e+07,4.02367e+25,9.95614e+22,4.46572e+10,0.0725698,2.37959e+33,0.03468,0.00245607,2.44564e-05,9.23317e-49,4.47366e+15,2.74796e+16,6.86915e+12,3.19601e+16
4.05e+06,155759,1.28466e+07,4.33687e+25,1.07297e+23,4.57876e+10,0.0725746,2.37877e+33,0.03468,0.00245606,2.4456e-05,9.23284e-49,4.4731e+15,2.74766e+16,6.86821e+12,3.19566e+16
4.15e+06,155747,1.28462e+07,4.6659e+25,1.15422e+23,4.6918e+10,0.0725795,2.37794e+33,0.03468,0.00245605,2.44558e-05,9.23265e-49,4.47253e+15,2.74735e+16,6.86726e+12,3.19529e+16
4.25e+06,155735,1.28457e+07,5.01115e+25,1.23946e+23,4.80484e+10,0.0725845,2.37708e+33,0.03468,0.00245604,2.44551e-05,9.23208e-49,4.47194e+15,2.74704e+16,6.86628e+12,3.19492e+16
4.35e+06,155723,1.28452e+07,5.37301e+25,1.32878e+23,4.91788e+10,0.0725897,2.3762e+33,0.03468,0.00245601,2.44541e-05,9.23128e-49,4.47134e+15,2.74672e+16,6.86527e+12,3.19454e+16
4.45e+06,155710,1.28448e+07,5.75186e+25,1.42227e+23,5.03092e+10,0.072595,2.3753e+33,0.03468,0.00245602,2.44544e-05,9.23153e-49,4.47072e+15,2.74639e+16,6.86425e+12,3.19415e+16
4.55e+06,155696,1.28443e+07,6.14809e+25,1.52002e+23,5.14395e+10,0.0726004,2.37439e+33,0.03468,0.00245601,2.44541e-05,9.23127e-49,4.47009e+15,2.74605e+16,6.8632e+12,3.19375e+16
4.65e+06,155683,1.28438e+07,6.5621e+25,1.62214e+23,5.25699e+10,0.072606,2.37345e+33,0.03468,0.00245599,2.44536e-05,9.23087e-49,4.46945e+15,2.74571e+16,6.86213e+12,3.19334e+16
4.75e+06,155669,1.28432e+07,6.99426e+25,1.7287e+23,5.37003e+10,0.0726116,2.37249e+33,0.03468,0.00245598,2.44533e-05,9.23063e-49,4.46879e+15,2.74535e+16,6.86103e+12,3.19292e+16
4.85e+06,155655,1.28427e+07,7.44496e+25,1.83981e+23,5.48306e+10,0.0726174,2.37151e+33,0.03468,0.00245596,2.44525e-05,9.22996e-49,4.46812e+15,2.74499e+16,6.85991e+12,3.19249e+16
4.95e+06,155641,1.28422e+07,7.9146e+25,1.95556e+23,5.59609e+10,0.0726233,2.37052e+33,0.03468,0.00245593,2.44513e-05,9.229e-49,4.46743e+15,2.74463e+16,6.85877e+12,3.19206e+16
5.05e+06,155626,1.28416e+07,8.40355e+25,2.07603e+23,5.70912e+10,0.0726293,2.3695e+33,0.03468,0.00245594,2.44517e-05,9.2293e-49,4.46673e+15,2.74425e+16,6.85761e+12,3.19161e+16
5.15e+06,155611,1.28411e+07,8.91221e+25,2.20133e+23,5.82215e+10,0.0726354,2.36846e+33,0.03468,0.00245593,2.44513e-05,9.22899e-49,4.46602e+15,2.74387e+16,6.85642e+12,3.19116e+16
5.25e+06,155596,1.28405e+07,9.44096e+25,2.33154e+23,5.93518e+10,0.0726417,2.36741e+33,0.03468,0.00245591,2.44508e-05,9.22851e-49,4.46529e+15,2.74348e+16,6.85521e+12,3.1907e+16
5.35e+06,155581,1.28399e+07,9.99019e+25,2.46675e+23,6.04821e+10,0.0726481,2.36633e+33,0.03468,0.0024559,2.44504e-05,9.22824e-49,4.46455e+15,2.74309e+16,6.85397e+12,3.19023e+16
5.45e+06,155565,1.28394e+07,1.05603e+26,2.60706e+23,6.16123e+10,0.0726546,2.36523e+33,0.03468,0.00245588,2.44495e-05,9.22745e-49,4.4638e+15,2.74268e+16,6.85272e+12,3.18975e+16
5.55e+06,155549,1.28388e+07,1.11516e+26,2.75256e+23,6.27426e+10,0.0726612,2.36412e+33,0.03468,0.00245584,2.44481e-05,9.22633e-49,4.46303e+15,2.74227e+16,6.85144e+12,3.18926e+16
5.65e+06,155532,1.28381e+07,1.17646e+26,2.90333e+23,6.38728e+10,0.072668,2.36298e+33,0.03468,0.00245585,2.44486e-05,9.22669e-49,4.46225e+15,2.74185e+16,6.85013e+12,3.18876e+16
5.75e+06,155516,1.28375e+07,1.23996e+26,3.05948e+23,6.5003e+10,0.0726748,2.36183e+33,0.03468,0.00245584,2.44481e-05,9.22634e-49,4.46145e+15,2.74142e+16,6.84881e+12,3.18825e+16
5.85e+06,155499,1.28369e+07,1.3057e+26,3.22108e+23,6.61333e+10,0.0726818,2.36065e+33,0.03468,0.00245582,2.44475e-05,9.22578e-49,4.46064e+15,2.74099e+16,6.84746e+12,3.18774e+16
5.95e+06,155482,1.28362e+07,1.37372e+26,3.38823e+23,6.72634e+10,0.0726889,2.35946e+33,0.03468,0.00245581,2.44471e-05,9.22547e-49,4.45982e+15,2.74055e+16,6.84608e+12,3.18722e+16
6.05e+06,155464,1.28356e+07,1.44405e+26,3.56102e+23,6.83936e+10,0.0726961,2.35824e+33,0.03468,0.00245578,2.4446e-05,9.22457e-49,4.45898e+15,2.7401e+16,6.84469e+12,3.18668e+16
6.15e+06,155446,1.28349e+07,1.51675e+26,3.73954e+23,6.95238e+10,0.0727035,2.35701e+33,0.03468,0.00245573,2.44444e-05,9.22329e-49,4.45813e+15,2.73965e+16,6.84327e+12,3.18614e+16
6.25e+06,155428,1.28343e+07,1.59183e+26,3.92387e+23,7.06539e+10,0.072711,2.35575e+33,0.03468,0.00245575,2.44449e-05,9.2237e-49,4.45726e+15,2.73918e+16,6.84183e+12,3.18559e+16
6.35e+06,155410,1.28336e+07,1.66935e+26,4.11412e+23,7.17841e+10,0.0727186,2.35448e+33,0.03468,0.00245573,2.44445e-05,9.2233e-49,4.45638e+15,2.73871e+16,6.84037e+12,3.18503e+16
6.45e+06,155391,1.28329e+07,1.74934e+26,4.31036e+23,7.29142e+10,0.0727263,2.35319e+33,0.03468,0.00245571,2.44437e-05,9.22267e-49,4.45549e+15,2.73823e+16,6.83888e+12,3.18447e+16
6.55e+06,155372,1.28322e+07,1.83184e+26,4.51269e+23,7.40443e+10,0.0727341,2.35188e+33,0.03468,0.0024557,2.44433e-05,9.22232e-49,4.45458e+15,2.73775e+16,6.83737e+12,3.18389e+16
6.65e+06,155353,1.28314e+07,1.91688e+26,4.72119e+23,7.51743e+10,0.0727421,2.35054e+33,0.03468,0.00245567,2.44421e-05,9.22131e-49,4.45366e+15,2.73726e+16,6.83584e+12,3.18331e+16
6.75e+06,155333,1.28307e+07,2.00452e+26,4.93595e+23,7.63044e+10,0.0727501,2.34919e+33,0.03468,0.00245561,2.44403e-05,9.21987e-49,4.45273e+15,2.73676e+16,6.83428e+12,3.18271e+16
6.85e+06,155314,1.283e+07,2.09477e+26,5.15706e+23,7.74345e+10,0.0727583,2.34782e+33,0.03468,0.00245563,2.44409e-05,9.22033e-49,4.45178e+15,2.73625e+16,6.8327e+12,3.18211e+16
6.95e+06,155293,1.28292e+07,2.18769e+26,5.38461e+23,7.85645e+10,0.0727667,2.34643e+33,0.03468,0.00245562,2.44403e-05,9.21988e-49,4.45082e+15,2.73573e+16,6.8311e+12,3.1815e+16
7.05e+06,155273,1.28285e+07,2.28331e+26,5.61868e+23,7.96945e+10,0.0727751,2.34502e+33,0.03468,0.00245559,2.44395e-05,9.21918e-49,4.44984e+15,2.73521e+16,6.82948e+12,3.18088e+16
7.15e+06,155252,1.28277e+07,2.38166e+26,5.85937e+23,8.08245e+10,0.0727837,2.3436e+33,0.03468,0.00245558,2.4439e-05,9.21879e-49,4.44886e+15,2.73468e+16,6.82783e+12,3.18025e+16
7.25e+06,155231,1.28269e+07,2.4828e+26,6.10675e+23,8.19545e+10,0.0727923,2.34215e+33,0.03468,0.00245554,2.44376e-05,9.21767e-49,4.44785e+15,2.73414e+16,6.82616e+12,3.17961e+16
7.35e+06,155210,1.28261e+07,2.58674e+26,6.36092e+23,8.30844e+10,0.0728011,2.34068e+33,0.03468,0.00245548,2.44357e-05,9.21607e-49,4.44684e+15,2.7336e+16,6.82447e+12,3.17897e+16
7.45e+06,155188,1.28253e+07,2.69354e+26,6.62197e+23,8.42144e+10,0.0728101,2.3392e+33,0.03468,0.0024555,2.44363e-05,9.21658e-49,4.44581e+15,2.73305e+16,6.82276e+12,3.17831e+16
7.55e+06,155167,1.28245e+07,2.80323e+26,6.88997e+23,8.53443e+10,0.0728191,2.33769e+33,0.03468,0.00245549,2.44357e-05,9.21609e-49,4.44476e+15,2.73249e+16,6.82102e+12,3.17765e+16
7.65e+06,155144,1.28237e+07,2.91585e+26,7.16501e+23,8.64742e+10,0.0728283,2.33617e+33,0.03468,0.00245546,2.44348e-05,9.21531e-49,4.44371e+15,2.73192e+16,6.81926e+12,3.17698e+16
7.75e+06,155122,1.28228e+07,3.03144e+26,7.44718e+23,8.76041e+10,0.0728376,2.33462e+33,0.03468,0.00245545,2.44343e-05,9.21488e-49,4.44264e+15,2.73135e+16,6.81748e+12,3.1763e+16
7.85e+06,155099,1.2822e+07,3.15003e+26,7.73656e+23,8.8734e+10,0.072847,2.33306e+33,0.03468,0.00245541,2.44328e-05,9.21366e-49,4.44155e+15,2.73077e+16,6.81567e+12,3.17561e+16
7.95e+06,155076,1.28211e+07,3.27166e+26,8.03324e+23,8.98638e+10,0.0728565,2.33148e+33,0.03468,0.00245534,2.44306e-05,9.21189e-49,4.44046e+15,2.73018e+16,6.81384e+12,3.17491e+16
8.05e+06,155053,1.28202e+07,3.39637e+26,8.33731e+23,9.09936e+10,0.0728662,2.32988e+33,0.03468,0.00245536,2.44313e-05,9.21245e-49,4.43934e+15,2.72959e+16,6.81199e+12,3.1742e+16
8.15e+06,155029,1.28194e+07,3.5242e+26,8.64884e+23,9.21235e+10,0.072876,2.32826e+33,0.03468,0.00245534,2.44307e-05,9.21192e-49,4.43822e+15,2.72898e+16,6.81012e+12,3.17349e+16
8.25e+06,155006,1.28185e+07,3.65519e+26,8.96792e+23,9.32532e+10,0.0728859,2.32663e+33,0.03468,0.00245532,2.44296e-05,9.21107e-49,4.43708e+15,2.72837e+16,6.80822e+12,3.17276e+16
8.35e+06,154981,1.28176e+07,3.78937e+26,9.29463e+23,9.4383e+10,0.0728959,2.32497e+33,0.03468,0.0024553,2.44291e-05,9.2106e-49,4.43593e+15,2.72776e+16,6.8063e+12,3.17203e+16
8.45e+06,154957,1.28166e+07,3.92678e+26,9.62906e+23,9.55128e+10,0.072906,2.3233e+33,0.03468,0.00245526,2.44275e-05,9.20926e-49,4.43476e+15,2.72713e+16,6.80436e+12,3.17129e+16
8.55e+06,154932,1.28157e+07,4.06746e+26,9.97129e+23,9.66425e+10,0.0729163,2.3216e+33,0.03468,0.00245518,2.44251e-05,9.20734e-49,4.43358e+15,2.7265e+16,6.8024e+12,3.17054e+16
8.65e+06,154907,1.28148e+07,4.21144e+26,1.03214e+24,9.77722e+10,0.0729267,2.31989e+33,0.03468,0.00245521,2.44259e-05,9.20795e-49,4.43239e+15,2.72586e+16,6.80041e+12,3.16978e+16
8.75e+06,154882,1.28138e+07,4.35877e+26,1.06795e+24,9.89019e+10,0.0729372,2.31816e+33,0.03468,0.00245519,2.44252e-05,9.20737e-49,4.43118e+15,2.72521e+16,6.79841e+12,3.16901e+16
8.85e+06,154856,1.28129e+07,4.50949e+26,1.10456e+24,1.00032e+11,0.0729479,2.31641e+33,0.03468,0.00245516,2.44241e-05,9.20645e-49,4.42996e+15,2.72456e+16,6.79637e+12,3.16824e+16
8.95e+06,154831,1.28119e+07,4.66362e+26,1.14199e+24,1.01161e+11,0.0729586,2.31464e+33,0.03468,0.00245514,2.44234e-05,9.20594e-49,4.42873e+15,2.7239e+16,6.79432e+12,3.16745e+16
9.05e+06,154804,1.28109e+07,4.8212e+26,1.18023e+24,1.02291e+11,0.0729695,2.31286e+33,0.03468,0.00245509,2.44217e-05,9.20449e-49,4.42748e+15,2.72323e+16,6.79225e+12,3.16666e+16
9.15e+06,154778,1.28099e+07,4.98228e+26,1.21931e+24,1.0342e+11,0.0729805,2.31105e+33,0.03468,0.00245501,2.44192e-05,9.20241e-49,4.42622e+15,2.72256e+16,6.79015e+12,3.16586e+16
9.25e+06,154751,1.28089e+07,5.1469e+26,1.25922e+24,1.0455e+11,0.0729916,2.30923e+33,0.03468,0.00245504,2.442e-05,9.20308e-49,4.42495e+15,2.72187e+16,6.78803e+12,3.16505e+16
9.35e+06,154724,1.28079e+07,5.31508e+26,1.29997e+24,1.05679e+11,0.0730029,2.30739e+33,0.03468,0.00245502,2.44192e-05,9.20245e-49,4.42366e+15,2.72118e+16,6.78588e+12,3.16423e+16
9.45e+06,154697,1.28069e+07,5.48686e+26,1.34158e+24,1.06809e+11,0.0730142,2.30553e+33,0.03468,0.00245499,2.4418e-05,9.20145e-49,4.42236e+15,2.72049e+16,6.78372e+12,3.1634e+16
9.55e+06,154669,1.28059e+07,5.6623e+26,1.38405e+24,1.07939e+11,0.0730257,2.30365e+33,0.03468,0.00245497,2.44173e-05,9.2009e-49,4.42105e+15,2.71978e+16,6.78153e+12,3.16257e+16
9.65e+06,154641,1.28048e+07,5.84141e+26,1.42739e+24,1.09068e+11,0.0730373,2.30176e+33,0.03468,0.00245492,2.44154e-05,9.19935e-49,4.41972e+15,2.71907e+16,6.77932e+12,3.16172e+16
9.75e+06,154613,1.28038e+07,6.02424e+26,1.47161e+24,1.10197e+11,0.0730491,2.29984e+33,0.03468,0.00245483,2.44127e-05,9.19711e-49,4.41838e+15,2.71835e+16,6.77709e+12,3.16087e+16
9.85e+06,154585,1.28027e+07,6.21082e+26,1.51671e+24,1.11327e+11,0.0730609,2.29791e+33,0.03468,0.00245486,2.44136e-05,9.19782e-49,4.41703e+15,2.71763e+16,6.77484e+12,3.16001e+16
9.95e+06,154556,1.28016e+07,6.4012e+26,1.5627e+24,1.12456e+11,0.0730729,2.29596e+33,0.03468,0.00245484,2.44128e-05,9.19715e-49,4.41566e+15,2.71689e+16,6.77256e+12,3.15914e+16
1.005e+07,154527,1.28006e+07,6.5954e+26,1.60959e+24,1.13586e+11,0.073085,2.29399e+33,0.03468,0.0024548,2.44115e-05,9.19608e-49,4.41428e+15,2.71615e+16,6.77026e+12,3.15826e+16
1.015e+07,154498,1.27995e+07,6.79347e+26,1.65739e+24,1.14715e+11,0.0730972,2.29201e+33,0.03468,0.00245478,2.44108e-05,9.19549e-49,4.41288e+15,2.71541e+16,6.76794e+12,3.15737e+16
1.025e+07,154468,1.27984e+07,6.99545e+26,1.7061e+24,1.15844e+11,0.0731096,2.29e+33,0.03468,0.00245473,2.44088e-05,9.19382e-49,4.41148e+15,2.71465e+16,6.7656e+12,3.15648e+16
1.035e+07,154438,1.27972e+07,7.20136e+26,1.75574e+24,1.16974e+11,0.0731221,2.28798e+33,0.03468,0.00245464,2.44058e-05,9.19143e-49,4.41006e+15,2.71389e+16,6.76323e+12,3.15557e+16
1.045e+07,154408,1.27961e+07,7.41125e+26,1.80631e+24,1.18103e+11,0.0731347,2.28594e+33,0.03468,0.00245467,2.44068e-05,9.19219e-49,4.40862e+15,2.71312e+16,6.76085e+12,3.15466e+16
1.055e+07,154378,1.2795e+07,7.62516e+26,1.85782e+24,1.19232e+11,0.0731474,2.28388e+33,0.03468,0.00245464,2.44059e-05,9.19147e-49,4.40718e+15,2.71234e+16,6.75844e+12,3.15374e+16
1.065e+07,154347,1.27938e+07,7.84311e+26,1.91027e+24,1.20361e+11,0.0731602,2.28181e+33,0.03468,0.00245461,2.44045e-05,9.19033e-49,4.40571e+15,2.71156e+16,6.75601e+12,3.15281e+16
1.075e+07,154316,1.27927e+07,8.06516e+26,1.96367e+24,1.21491e+11,0.0731732,2.27972e+33,0.03468,0.00245458,2.44038e-05,9.18971e-49,4.40424e+15,2.71077e+16,6.75356e+12,3.15187e+16
1.085e+07,154285,1.27915e+07,8.29132e+26,2.01804e+24,1.2262e+11,0.0731863,2.27761e+33,0.03468,0.00245453,2.44016e-05,9.18793e-49,4.40275e+15,2.70997e+16,6.75108e+12,3.15092e+16
1.095e+07,154253,1.27903e+07,8.52165e+26,2.07337e+24,1.23749e+11,0.0731995,2.27548e+33,0.03468,0.00245443,2.43985e-05,9.18538e-49,4.40125e+15,2.70917e+16,6.74858e+12,3.14997e+16
