X = 0.734
Y = 0.25
Z = 0.016
mu = 0.601142
Radius,Density,Temp,Mass,Lum,OptD,Kff,KH,Kes,PP,CNO,3a,Deg,Gas,Rad,TotPres
0,0,0,0,0,0,-nan,0,0.03468,0.000553895,5.22398e-08,1.23038e-54,0,0,0,0
1,113600,9.58999e+06,475847,263.594,18391,0.161893,1.46246e+32,0.03468,0.000553895,5.22398e-08,1.23038e-54,2.64331e+15,1.49595e+16,2.13286e+12,1.76049e+16
30001,113600,9.58999e+06,1.28491e+19,7.11774e+15,5.51748e+08,0.161893,1.46246e+32,0.03468,0.000553895,5.22398e-08,1.23038e-54,2.64331e+15,1.49595e+16,2.13286e+12,1.76049e+16
70001,113600,9.58999e+06,1.63222e+20,9.04164e+16,1.28739e+09,0.161893,1.46245e+32,0.03468,0.000553895,5.22398e-08,1.23038e-54,2.64331e+15,1.49595e+16,2.13286e+12,1.76049e+16
150001,113600,9.58998e+06,1.60601e+21,8.89642e+17,2.75867e+09,0.161893,1.46244e+32,0.03468,0.000553895,5.22398e-08,1.23038e-54,2.64331e+15,1.49595e+16,2.13286e+12,1.76049e+16
250001,113599,9.58997e+06,7.43517e+21,4.11865e+18,4.59777e+09,0.161893,1.46242e+32,0.03468,0.000553895,5.22398e-08,1.23038e-54,2.64329e+15,1.49594e+16,2.13284e+12,1.76048e+16
350001,113599,9.58994e+06,2.0402e+22,1.13014e+19,6.43686e+09,0.161894,1.46238e+32,0.03468,0.000553895,5.22398e-08,1.23038e-54,2.64327e+15,1.49593e+16,2.13282e+12,1.76047e+16
450001,113598,9.58991e+06,4.33613e+22,2.40191e+19,8.27596e+09,0.161895,1.46233e+32,0.03468,0.000553895,5.22398e-08,1.23038e-54,2.64323e+15,1.49591e+16,2.13279e+12,1.76045e+16
550001,113597,9.58987e+06,7.91681e+22,4.38529e+19,1.01151e+10,0.161896,1.46227e+32,0.03468,0.000553895,5.22398e-08,1.23038e-54,2.64319e+15,1.49589e+16,2.13276e+12,1.76042e+16
650001,113596,9.58983e+06,1.30677e+23,7.23834e+19,1.19541e+10,0.161898,1.4622e+32,0.03468,0.000553894,5.22398e-08,1.23038e-54,2.64314e+15,1.49587e+16,2.13272e+12,1.76039e+16
750001,113594,9.58977e+06,2.00742e+23,1.11191e+20,1.37932e+10,0.1619,1.46212e+32,0.03468,0.000553894,5.22398e-08,1.23038e-54,2.64309e+15,1.49584e+16,2.13267e+12,1.76036e+16
850001,113593,9.58971e+06,2.92219e+23,1.61856e+20,1.56323e+10,0.161902,1.46202e+32,0.03468,0.000553894,5.22398e-08,1.23038e-54,2.64303e+15,1.49581e+16,2.13261e+12,1.76032e+16
950001,113591,9.58964e+06,4.0796e+23,2.25957e+20,1.74714e+10,0.161904,1.46191e+32,0.03468,0.000553894,5.22398e-08,1.23038e-54,2.64295e+15,1.49577e+16,2.13255e+12,1.76028e+16
1.05e+06,113589,9.58956e+06,5.5082e+23,3.05074e+20,1.93105e+10,0.161907,1.46179e+32,0.03468,0.000553894,5.22397e-08,1.23038e-54,2.64287e+15,1.49573e+16,2.13248e+12,1.76023e+16
1.15e+06,113586,9.58947e+06,7.23653e+23,4.00784e+20,2.11496e+10,0.16191,1.46166e+32,0.03468,0.000553894,5.22397e-08,1.23038e-54,2.64279e+15,1.49569e+16,2.1324e+12,1.76018e+16
1.25e+06,113584,9.58938e+06,9.29311e+23,5.14666e+20,2.29886e+10,0.161913,1.46151e+32,0.03468,0.000553894,5.22396e-08,1.23037e-54,2.64269e+15,1.49564e+16,2.13232e+12,1.76012e+16
1.35e+06,113581,9.58928e+06,1.17065e+24,6.48296e+20,2.48277e+10,0.161916,1.46135e+32,0.03468,0.000553894,5.22396e-08,1.23037e-54,2.64259e+15,1.49559e+16,2.13223e+12,1.76006e+16
1.45e+06,113578,9.58917e+06,1.45052e+24,8.0325e+20,2.66668e+10,0.16192,1.46118e+32,0.03468,0.000553894,5.22396e-08,1.23037e-54,2.64248e+15,1.49554e+16,2.13213e+12,1.76e+16
1.55e+06,113575,9.58905e+06,1.77177e+24,9.81104e+20,2.85058e+10,0.161924,1.461e+32,0.03468,0.000553894,5.22396e-08,1.23037e-54,2.64236e+15,1.49548e+16,2.13202e+12,1.75993e+16
1.65e+06,113572,9.58892e+06,2.13725e+24,1.18343e+21,3.03449e+10,0.161928,1.46081e+32,0.03468,0.000553894,5.22395e-08,1.23036e-54,2.64223e+15,1.49541e+16,2.13191e+12,1.75985e+16
1.75e+06,113569,9.58879e+06,2.54982e+24,1.41181e+21,3.21839e+10,0.161932,1.4606e+32,0.03468,0.000553893,5.22394e-08,1.23036e-54,2.64209e+15,1.49535e+16,2.13179e+12,1.75977e+16
1.85e+06,113565,9.58865e+06,3.01233e+24,1.6678e+21,3.4023e+10,0.161937,1.46039e+32,0.03468,0.000553892,5.22391e-08,1.23034e-54,2.64195e+15,1.49528e+16,2.13167e+12,1.75969e+16
1.95e+06,113561,9.5885e+06,3.52762e+24,1.95298e+21,3.5862e+10,0.161942,1.46016e+32,0.03468,0.000553892,5.22389e-08,1.23033e-54,2.6418e+15,1.4952e+16,2.13153e+12,1.7596e+16
2.05e+06,113557,9.58834e+06,4.09855e+24,2.26892e+21,3.7701e+10,0.161947,1.45991e+32,0.03468,0.000553892,5.22389e-08,1.23033e-54,2.64164e+15,1.49512e+16,2.13139e+12,1.7595e+16
2.15e+06,113553,9.58818e+06,4.72796e+24,2.61719e+21,3.954e+10,0.161953,1.45966e+32,0.03468,0.000553891,5.22387e-08,1.23032e-54,2.64147e+15,1.49504e+16,2.13125e+12,1.7594e+16
2.25e+06,113548,9.588e+06,5.41871e+24,2.99936e+21,4.1379e+10,0.161958,1.4594e+32,0.03468,0.000553891,5.22385e-08,1.23031e-54,2.6413e+15,1.49496e+16,2.13109e+12,1.7593e+16
2.35e+06,113543,9.58782e+06,6.17364e+24,3.41699e+21,4.3218e+10,0.161964,1.45912e+32,0.03468,0.00055389,5.22383e-08,1.2303e-54,2.64112e+15,1.49486e+16,2.13093e+12,1.75919e+16
2.45e+06,113538,9.58763e+06,6.99559e+24,3.87164e+21,4.5057e+10,0.16197,1.45883e+32,0.03468,0.000553888,5.22377e-08,1.23027e-54,2.64093e+15,1.49477e+16,2.13077e+12,1.75908e+16
2.55e+06,113533,9.58744e+06,7.88742e+24,4.36488e+21,4.6896e+10,0.161977,1.45853e+32,0.03468,0.000553886,5.2237e-08,1.23023e-54,2.64073e+15,1.49467e+16,2.13059e+12,1.75896e+16
2.65e+06,113528,9.58723e+06,8.85197e+24,4.89827e+21,4.8735e+10,0.161984,1.45821e+32,0.03468,0.000553887,5.22371e-08,1.23024e-54,2.64052e+15,1.49457e+16,2.13041e+12,1.75884e+16
2.75e+06,113522,9.58702e+06,9.89208e+24,5.47337e+21,5.0574e+10,0.161991,1.45789e+32,0.03468,0.000553886,5.22368e-08,1.23023e-54,2.64031e+15,1.49446e+16,2.13022e+12,1.75871e+16
2.85e+06,113517,9.5868e+06,1.10106e+25,6.09173e+21,5.24129e+10,0.161998,1.45755e+32,0.03468,0.000553884,5.22364e-08,1.2302e-54,2.64008e+15,1.49436e+16,2.13003e+12,1.75858e+16
2.95e+06,113511,9.58657e+06,1.22104e+25,6.75492e+21,5.42519e+10,0.162006,1.4572e+32,0.03468,0.000553884,5.22361e-08,1.23019e-54,2.63985e+15,1.49424e+16,2.12982e+12,1.75844e+16
3.05e+06,113505,9.58634e+06,1.34942e+25,7.46449e+21,5.60908e+10,0.162013,1.45684e+32,0.03468,0.000553881,5.22352e-08,1.23014e-54,2.63962e+15,1.49412e+16,2.12961e+12,1.7583e+16
3.15e+06,113498,9.58609e+06,1.4865e+25,8.22198e+21,5.79297e+10,0.162021,1.45646e+32,0.03468,0.000553877,5.22341e-08,1.23008e-54,2.63937e+15,1.494e+16,2.1294e+12,1.75815e+16
3.25e+06,113492,9.58584e+06,1.63256e+25,9.02896e+21,5.97686e+10,0.16203,1.45608e+32,0.03468,0.000553878,5.22344e-08,1.2301e-54,2.63912e+15,1.49388e+16,2.12917e+12,1.758e+16
3.35e+06,113485,9.58558e+06,1.78788e+25,9.88696e+21,6.16075e+10,0.162038,1.45568e+32,0.03468,0.000553877,5.2234e-08,1.23008e-54,2.63885e+15,1.49375e+16,2.12894e+12,1.75785e+16
3.45e+06,113478,9.58532e+06,1.95274e+25,1.07975e+22,6.34464e+10,0.162047,1.45527e+32,0.03468,0.000553875,5.22333e-08,1.23005e-54,2.63858e+15,1.49361e+16,2.12871e+12,1.75769e+16
3.55e+06,113471,9.58504e+06,2.12743e+25,1.17622e+22,6.52853e+10,0.162056,1.45485e+32,0.03468,0.000553874,5.2233e-08,1.23003e-54,2.63831e+15,1.49348e+16,2.12846e+12,1.75752e+16
3.65e+06,113463,9.58476e+06,2.31224e+25,1.27826e+22,6.71242e+10,0.162066,1.45441e+32,0.03468,0.000553871,5.22318e-08,1.22997e-54,2.63802e+15,1.49334e+16,2.12821e+12,1.75735e+16
3.75e+06,113456,9.58447e+06,2.50744e+25,1.38601e+22,6.8963e+10,0.162075,1.45397e+32,0.03468,0.000553866,5.22303e-08,1.22989e-54,2.63773e+15,1.49319e+16,2.12795e+12,1.75718e+16
3.85e+06,113448,9.58417e+06,2.71332e+25,1.49964e+22,7.08019e+10,0.162085,1.45351e+32,0.03468,0.000553867,5.22307e-08,1.22991e-54,2.63743e+15,1.49304e+16,2.12769e+12,1.757e+16
3.95e+06,113440,9.58386e+06,2.93016e+25,1.6193e+22,7.26407e+10,0.162095,1.45304e+32,0.03468,0.000553866,5.22302e-08,1.22988e-54,2.63712e+15,1.49289e+16,2.12742e+12,1.75681e+16
4.05e+06,113432,9.58355e+06,3.15825e+25,1.74513e+22,7.44795e+10,0.162106,1.45256e+32,0.03468,0.000553864,5.22294e-08,1.22984e-54,2.6368e+15,1.49273e+16,2.12714e+12,1.75663e+16
4.15e+06,113424,9.58323e+06,3.39787e+25,1.8773e+22,7.63183e+10,0.162116,1.45207e+32,0.03468,0.000553862,5.22289e-08,1.22982e-54,2.63648e+15,1.49257e+16,2.12685e+12,1.75643e+16
4.25e+06,113415,9.5829e+06,3.6493e+25,2.01596e+22,7.81571e+10,0.162127,1.45156e+32,0.03468,0.000553858,5.22275e-08,1.22974e-54,2.63614e+15,1.49241e+16,2.12656e+12,1.75624e+16
4.35e+06,113406,9.58256e+06,3.91282e+25,2.16125e+22,7.99958e+10,0.162139,1.45105e+32,0.03468,0.000553852,5.22255e-08,1.22964e-54,2.6358e+15,1.49224e+16,2.12626e+12,1.75603e+16
4.45e+06,113397,9.58221e+06,4.18873e+25,2.31334e+22,8.18346e+10,0.16215,1.45052e+32,0.03468,0.000553854,5.22261e-08,1.22967e-54,2.63545e+15,1.49207e+16,2.12595e+12,1.75583e+16
4.55e+06,113388,9.58186e+06,4.47729e+25,2.47237e+22,8.36733e+10,0.162162,1.44998e+32,0.03468,0.000553852,5.22255e-08,1.22964e-54,2.6351e+15,1.49189e+16,2.12564e+12,1.75561e+16
4.65e+06,113379,9.5815e+06,4.77879e+25,2.63849e+22,8.5512e+10,0.162174,1.44943e+32,0.03468,0.000553849,5.22245e-08,1.22959e-54,2.63473e+15,1.49171e+16,2.12532e+12,1.7554e+16
4.75e+06,113369,9.58113e+06,5.09352e+25,2.81185e+22,8.73507e+10,0.162186,1.44886e+32,0.03468,0.000553847,5.22239e-08,1.22956e-54,2.63436e+15,1.49153e+16,2.12499e+12,1.75518e+16
4.85e+06,113359,9.58075e+06,5.42175e+25,2.99262e+22,8.91894e+10,0.162199,1.44829e+32,0.03468,0.000553842,5.22222e-08,1.22947e-54,2.63398e+15,1.49134e+16,2.12466e+12,1.75495e+16
4.95e+06,113349,9.58037e+06,5.76378e+25,3.18093e+22,9.10281e+10,0.162211,1.4477e+32,0.03468,0.000553835,5.22198e-08,1.22935e-54,2.63359e+15,1.49115e+16,2.12432e+12,1.75472e+16
5.05e+06,113339,9.57998e+06,6.11987e+25,3.37693e+22,9.28667e+10,0.162224,1.4471e+32,0.03468,0.000553837,5.22206e-08,1.22939e-54,2.6332e+15,1.49095e+16,2.12397e+12,1.75449e+16
5.15e+06,113329,9.57958e+06,6.49032e+25,3.58079e+22,9.47053e+10,0.162238,1.44649e+32,0.03468,0.000553835,5.22198e-08,1.22935e-54,2.6328e+15,1.49075e+16,2.12361e+12,1.75425e+16
5.25e+06,113318,9.57917e+06,6.87539e+25,3.79264e+22,9.6544e+10,0.162251,1.44587e+32,0.03468,0.000553832,5.22186e-08,1.22929e-54,2.63238e+15,1.49055e+16,2.12325e+12,1.754e+16
5.35e+06,113307,9.57875e+06,7.27539e+25,4.01264e+22,9.83826e+10,0.162265,1.44524e+32,0.03468,0.000553829,5.22179e-08,1.22925e-54,2.63197e+15,1.49034e+16,2.12288e+12,1.75375e+16
5.45e+06,113296,9.57833e+06,7.69058e+25,4.24094e+22,1.00221e+11,0.162279,1.44459e+32,0.03468,0.000553824,5.2216e-08,1.22915e-54,2.63154e+15,1.49013e+16,2.12251e+12,1.7535e+16
5.55e+06,113285,9.5779e+06,8.12124e+25,4.47768e+22,1.0206e+11,0.162293,1.44393e+32,0.03468,0.000553815,5.22132e-08,1.22901e-54,2.6311e+15,1.48992e+16,2.12212e+12,1.75324e+16
5.65e+06,113273,9.57746e+06,8.56767e+25,4.72301e+22,1.03898e+11,0.162308,1.44326e+32,0.03468,0.000553818,5.2214e-08,1.22905e-54,2.63066e+15,1.4897e+16,2.12173e+12,1.75298e+16
5.75e+06,113262,9.57701e+06,9.03013e+25,4.97708e+22,1.05737e+11,0.162323,1.44258e+32,0.03468,0.000553815,5.22132e-08,1.22901e-54,2.63021e+15,1.48948e+16,2.12134e+12,1.75271e+16
5.85e+06,113250,9.57655e+06,9.50892e+25,5.24004e+22,1.07575e+11,0.162338,1.44189e+32,0.03468,0.000553811,5.22118e-08,1.22893e-54,2.62975e+15,1.48925e+16,2.12093e+12,1.75244e+16
5.95e+06,113238,9.57609e+06,1.00043e+26,5.51204e+22,1.09414e+11,0.162353,1.44119e+32,0.03468,0.000553809,5.2211e-08,1.2289e-54,2.62929e+15,1.48902e+16,2.12052e+12,1.75216e+16
6.05e+06,113226,9.57562e+06,1.05166e+26,5.79322e+22,1.11252e+11,0.162369,1.44047e+32,0.03468,0.000553802,5.22088e-08,1.22878e-54,2.62881e+15,1.48879e+16,2.12011e+12,1.75188e+16
6.15e+06,113213,9.57514e+06,1.1046e+26,6.08374e+22,1.13091e+11,0.162385,1.43975e+32,0.03468,0.000553792,5.22056e-08,1.22862e-54,2.62833e+15,1.48855e+16,2.11968e+12,1.75159e+16
6.25e+06,113201,9.57466e+06,1.15928e+26,6.38372e+22,1.14929e+11,0.162401,1.43901e+32,0.03468,0.000553795,5.22066e-08,1.22867e-54,2.62784e+15,1.48831e+16,2.11925e+12,1.7513e+16
6.35e+06,113188,9.57416e+06,1.21574e+26,6.69333e+22,1.16767e+11,0.162418,1.43826e+32,0.03468,0.000553793,5.22056e-08,1.22862e-54,2.62735e+15,1.48806e+16,2.11882e+12,1.75101e+16
6.45e+06,113175,9.57366e+06,1.274e+26,7.01271e+22,1.18606e+11,0.162434,1.4375e+32,0.03468,0.000553788,5.2204e-08,1.22854e-54,2.62684e+15,1.48781e+16,2.11837e+12,1.75071e+16
6.55e+06,113161,9.57315e+06,1.33409e+26,7.342e+22,1.20444e+11,0.162451,1.43672e+32,0.03468,0.000553785,5.22032e-08,1.22849e-54,2.62633e+15,1.48756e+16,2.11792e+12,1.7504e+16
6.65e+06,113148,9.57263e+06,1.39603e+26,7.68134e+22,1.22282e+11,0.162468,1.43594e+32,0.03468,0.000553778,5.22007e-08,1.22836e-54,2.62581e+15,1.4873e+16,2.11746e+12,1.75009e+16
6.75e+06,113134,9.57211e+06,1.45985e+26,8.03089e+22,1.24121e+11,0.162486,1.43514e+32,0.03468,0.000553767,5.2197e-08,1.22818e-54,2.62528e+15,1.48704e+16,2.117e+12,1.74978e+16
6.85e+06,113120,9.57157e+06,1.52559e+26,8.39078e+22,1.25959e+11,0.162504,1.43434e+32,0.03468,0.00055377,5.21982e-08,1.22823e-54,2.62474e+15,1.48677e+16,2.11653e+12,1.74946e+16
6.95e+06,113106,9.57103e+06,1.59326e+26,8.76116e+22,1.27797e+11,0.162522,1.43352e+32,0.03468,0.000553767,5.21971e-08,1.22818e-54,2.6242e+15,1.48651e+16,2.11605e+12,1.74914e+16
7.05e+06,113092,9.57048e+06,1.66291e+26,9.14217e+22,1.29635e+11,0.16254,1.43269e+32,0.03468,0.000553762,5.21953e-08,1.22809e-54,2.62365e+15,1.48623e+16,2.11556e+12,1.74881e+16
7.15e+06,113078,9.56993e+06,1.73454e+26,9.53395e+22,1.31474e+11,0.162558,1.43185e+32,0.03468,0.000553759,5.21944e-08,1.22804e-54,2.62309e+15,1.48596e+16,2.11507e+12,1.74848e+16
7.25e+06,113063,9.56936e+06,1.8082e+26,9.93665e+22,1.33312e+11,0.162577,1.43099e+32,0.03468,0.000553751,5.21916e-08,1.22789e-54,2.62252e+15,1.48568e+16,2.11457e+12,1.74814e+16
7.35e+06,113048,9.56879e+06,1.88391e+26,1.03504e+23,1.3515e+11,0.162596,1.43013e+32,0.03468,0.000553738,5.21876e-08,1.22769e-54,2.62195e+15,1.48539e+16,2.11407e+12,1.7478e+16
7.45e+06,113033,9.56821e+06,1.9617e+26,1.07754e+23,1.36988e+11,0.162616,1.42925e+32,0.03468,0.000553743,5.21888e-08,1.22775e-54,2.62137e+15,1.4851e+16,2.11355e+12,1.74745e+16
7.55e+06,113018,9.56762e+06,2.0416e+26,1.12117e+23,1.38826e+11,0.162635,1.42837e+32,0.03468,0.000553739,5.21876e-08,1.22769e-54,2.62078e+15,1.48481e+16,2.11303e+12,1.7471e+16
7.65e+06,113002,9.56703e+06,2.12362e+26,1.16594e+23,1.40664e+11,0.162655,1.42747e+32,0.03468,0.000553734,5.21857e-08,1.22759e-54,2.62018e+15,1.48452e+16,2.11251e+12,1.74675e+16
7.75e+06,112987,9.56642e+06,2.20781e+26,1.21188e+23,1.42502e+11,0.162675,1.42656e+32,0.03468,0.00055373,5.21846e-08,1.22754e-54,2.61957e+15,1.48422e+16,2.11197e+12,1.74639e+16
7.85e+06,112971,9.56581e+06,2.29419e+26,1.259e+23,1.4434e+11,0.162696,1.42564e+32,0.03468,0.000553722,5.21816e-08,1.22738e-54,2.61896e+15,1.48391e+16,2.11143e+12,1.74602e+16
7.95e+06,112955,9.56519e+06,2.38279e+26,1.3073e+23,1.46178e+11,0.162716,1.42471e+32,0.03468,0.000553707,5.21772e-08,1.22715e-54,2.61834e+15,1.48361e+16,2.11089e+12,1.74565e+16
8.05e+06,112938,9.56457e+06,2.47362e+26,1.35681e+23,1.48016e+11,0.162737,1.42377e+32,0.03468,0.000553712,5.21786e-08,1.22722e-54,2.61771e+15,1.4833e+16,2.11034e+12,1.74528e+16
8.15e+06,112922,9.56393e+06,2.56673e+26,1.40753e+23,1.49854e+11,0.162758,1.42281e+32,0.03468,0.000553708,5.21772e-08,1.22715e-54,2.61707e+15,1.48298e+16,2.10978e+12,1.7449e+16
8.25e+06,112905,9.56329e+06,2.66214e+26,1.45949e+23,1.51692e+11,0.16278,1.42185e+32,0.03468,0.000553702,5.21751e-08,1.22705e-54,2.61643e+15,1.48266e+16,2.10921e+12,1.74452e+16
8.35e+06,112888,9.56264e+06,2.75988e+26,1.51269e+23,1.5353e+11,0.162801,1.42087e+32,0.03468,0.000553698,5.21739e-08,1.22699e-54,2.61578e+15,1.48234e+16,2.10864e+12,1.74413e+16
8.45e+06,112871,9.56198e+06,2.85997e+26,1.56715e+23,1.55368e+11,0.162823,1.41989e+32,0.03468,0.000553689,5.21706e-08,1.22681e-54,2.61512e+15,1.48201e+16,2.10805e+12,1.74374e+16
8.55e+06,112854,9.56132e+06,2.96244e+26,1.62288e+23,1.57205e+11,0.162846,1.41889e+32,0.03468,0.000553673,5.21658e-08,1.22657e-54,2.61445e+15,1.48168e+16,2.10747e+12,1.74334e+16
8.65e+06,112837,9.56064e+06,3.06732e+26,1.6799e+23,1.59043e+11,0.162868,1.41788e+32,0.03468,0.000553678,5.21673e-08,1.22665e-54,2.61378e+15,1.48135e+16,2.10687e+12,1.74294e+16
8.75e+06,112819,9.55996e+06,3.17464e+26,1.73822e+23,1.60881e+11,0.162891,1.41686e+32,0.03468,0.000553674,5.21659e-08,1.22657e-54,2.61309e+15,1.48101e+16,2.10627e+12,1.74253e+16
8.85e+06,112801,9.55927e+06,3.28442e+26,1.79785e+23,1.62719e+11,0.162914,1.41583e+32,0.03468,0.000553668,5.21636e-08,1.22645e-54,2.6124e+15,1.48067e+16,2.10567e+12,1.74212e+16
8.95e+06,112783,9.55858e+06,3.39669e+26,1.8588e+23,1.64556e+11,0.162937,1.41479e+32,0.03468,0.000553664,5.21623e-08,1.22639e-54,2.61171e+15,1.48033e+16,2.10505e+12,1.74171e+16
9.05e+06,112765,9.55787e+06,3.51149e+26,1.92109e+23,1.66394e+11,0.162961,1.41373e+32,0.03468,0.000553654,5.21587e-08,1.2262e-54,2.611e+15,1.47998e+16,2.10443e+12,1.74129e+16
9.15e+06,112746,9.55716e+06,3.62882e+26,1.98474e+23,1.68232e+11,0.162985,1.41267e+32,0.03468,0.000553636,5.21535e-08,1.22593e-54,2.61029e+15,1.47962e+16,2.10381e+12,1.74086e+16
9.25e+06,112728,9.55644e+06,3.74873e+26,2.04975e+23,1.70069e+11,0.163009,1.4116e+32,0.03468,0.000553642,5.21552e-08,1.22602e-54,2.60957e+15,1.47927e+16,2.10317e+12,1.74044e+16
9.35e+06,112709,9.55571e+06,3.87124e+26,2.11614e+23,1.71907e+11,0.163033,1.41051e+32,0.03468,0.000553638,5.21536e-08,1.22594e-54,2.60884e+15,1.47891e+16,2.10253e+12,1.74e+16
9.45e+06,112690,9.55498e+06,3.99638e+26,2.18392e+23,1.73744e+11,0.163058,1.40941e+32,0.03468,0.000553631,5.21511e-08,1.22581e-54,2.6081e+15,1.47854e+16,2.10188e+12,1.73956e+16
9.55e+06,112670,9.55423e+06,4.12418e+26,2.25311e+23,1.75582e+11,0.163082,1.40831e+32,0.03468,0.000553626,5.21498e-08,1.22574e-54,2.60736e+15,1.47818e+16,2.10123e+12,1.73912e+16
9.65e+06,112651,9.55348e+06,4.25465e+26,2.32371e+23,1.77419e+11,0.163108,1.40719e+32,0.03468,0.000553615,5.21459e-08,1.22554e-54,2.60661e+15,1.4778e+16,2.10057e+12,1.73868e+16
9.75e+06,112631,9.55272e+06,4.38784e+26,2.39575e+23,1.79257e+11,0.163133,1.40606e+32,0.03468,0.000553597,5.21403e-08,1.22525e-54,2.60585e+15,1.47743e+16,2.0999e+12,1.73822e+16
9.85e+06,112611,9.55196e+06,4.52376e+26,2.46923e+23,1.81094e+11,0.163159,1.40492e+32,0.03468,0.000553603,5.21421e-08,1.22534e-54,2.60509e+15,1.47705e+16,2.09923e+12,1.73777e+16
9.95e+06,112591,9.55118e+06,4.66244e+26,2.54416e+23,1.82931e+11,0.163185,1.40377e+32,0.03468,0.000553598,5.21404e-08,1.22526e-54,2.60431e+15,1.47667e+16,2.09855e+12,1.73731e+16
1.005e+07,112571,9.5504e+06,4.80392e+26,2.62057e+23,1.84769e+11,0.163211,1.40261e+32,0.03468,0.000553591,5.21377e-08,1.22512e-54,2.60353e+15,1.47628e+16,2.09786e+12,1.73684e+16
1.015e+07,112551,9.54961e+06,4.94821e+26,2.69846e+23,1.86606e+11,0.163237,1.40144e+32,0.03468,0.000553586,5.21362e-08,1.22504e-54,2.60274e+15,1.47589e+16,2.09717e+12,1.73637e+16
1.025e+07,112530,9.54881e+06,5.09535e+26,2.77784e+23,1.88443e+11,0.163264,1.40026e+32,0.03468,0.000553574,5.21321e-08,1.22483e-54,2.60195e+15,1.4755e+16,2.09647e+12,1.7359e+16
1.035e+07,112509,9.54801e+06,5.24536e+26,2.85872e+23,1.9028e+11,0.163291,1.39907e+32,0.03468,0.000553555,5.21261e-08,1.22452e-54,2.60114e+15,1.4751e+16,2.09576e+12,1.73542e+16
1.045e+07,112488,9.5472e+06,5.39827e+26,2.94113e+23,1.92118e+11,0.163318,1.39787e+32,0.03468,0.000553561,5.2128e-08,1.22462e-54,2.60033e+15,1.4747e+16,2.09505e+12,1.73494e+16
1.055e+07,112467,9.54638e+06,5.5541e+26,3.02507e+23,1.93955e+11,0.163346,1.39665e+32,0.03468,0.000553556,5.21262e-08,1.22453e-54,2.59951e+15,1.47429e+16,2.09433e+12,1.73445e+16
1.065e+07,112445,9.54555e+06,5.71288e+26,3.11056e+23,1.95792e+11,0.163374,1.39543e+32,0.03468,0.000553548,5.21234e-08,1.22438e-54,2.59869e+15,1.47388e+16,2.0936e+12,1.73396e+16
1.075e+07,112424,9.54471e+06,5.87465e+26,3.1976e+23,1.97629e+11,0.163402,1.3942e+32,0.03468,0.000553543,5.21218e-08,1.2243e-54,2.59785e+15,1.47347e+16,2.09287e+12,1.73346e+16
1.085e+07,112402,9.54387e+06,6.03942e+26,3.28621e+23,1.99466e+11,0.16343,1.39295e+32,0.03468,0.000553531,5.21174e-08,1.22407e-54,2.59701e+15,1.47305e+16,2.09213e+12,1.73296e+16
1.095e+07,112380,9.54302e+06,6.20722e+26,3.3764e+23,2.01303e+11,0.163459,1.3917e+32,0.03468,0.000553509,5.2111e-08,1.22375e-54,2.59616e+15,1.47263e+16,2.09138e+12,1.73246e+16
