X = 0.734
Y = 0.25
Z = 0.016
mu = 0.601142
Radius,Density,Temp,Mass,Lum,OptD,Kff,KH,Kes,PP,CNO,3a,Deg,Gas,Rad,TotPres
0,0,0,0,0,0,-nan,0,0.03468,0.000274494,1.8061e-09,7.27893e-58,0,0,0,0
1,110000,8.11131e+06,460767,126.478,31287.8,0.284435,3.18819e+31,0.03468,0.000274494,1.8061e-09,7.27893e-58,2.50518e+15,1.22519e+16,1.09158e+12,1.47582e+16
30001,110000,8.11131e+06,1.2442e+19,3.41526e+15,9.38666e+08,0.284435,3.18819e+31,0.03468,0.000274494,1.8061e-09,7.27893e-58,2.50518e+15,1.22519e+16,1.09158e+12,1.47582e+16
70001,110000,8.11131e+06,1.5805e+20,4.33839e+16,2.19018e+09,0.284435,3.18819e+31,0.03468,0.000274494,1.8061e-09,7.27893e-58,2.50518e+15,1.22519e+16,1.09157e+12,1.47582e+16
150001,110000,8.1113e+06,1.55512e+21,4.26871e+17,4.6932e+09,0.284435,3.18816e+31,0.03468,0.000274494,1.8061e-09,7.27893e-58,2.50517e+15,1.22519e+16,1.09157e+12,1.47581e+16
250001,109999,8.11129e+06,7.19954e+21,1.97622e+18,7.82198e+09,0.284436,3.1881e+31,0.03468,0.000274494,1.8061e-09,7.27893e-58,2.50516e+15,1.22518e+16,1.09156e+12,1.47581e+16
350001,109999,8.11126e+06,1.97554e+22,5.42266e+18,1.09508e+10,0.284438,3.18801e+31,0.03468,0.000274494,1.8061e-09,7.27893e-58,2.50513e+15,1.22517e+16,1.09155e+12,1.47579e+16
450001,109998,8.11123e+06,4.19872e+22,1.15249e+19,1.40795e+10,0.28444,3.1879e+31,0.03468,0.000274494,1.8061e-09,7.27893e-58,2.5051e+15,1.22516e+16,1.09154e+12,1.47577e+16
550001,109997,8.1112e+06,7.66591e+22,2.10415e+19,1.72083e+10,0.284442,3.18775e+31,0.03468,0.000274494,1.8061e-09,7.27893e-58,2.50506e+15,1.22514e+16,1.09152e+12,1.47575e+16
650001,109995,8.11115e+06,1.26535e+23,3.47309e+19,2.03371e+10,0.284445,3.18757e+31,0.03468,0.000274494,1.8061e-09,7.27892e-58,2.50501e+15,1.22512e+16,1.09149e+12,1.47573e+16
750001,109994,8.1111e+06,1.9438e+23,5.33514e+19,2.34658e+10,0.284449,3.18736e+31,0.03468,0.000274494,1.8061e-09,7.27892e-58,2.50495e+15,1.22509e+16,1.09146e+12,1.47569e+16
850001,109992,8.11104e+06,2.82957e+23,7.76609e+19,2.65946e+10,0.284453,3.18713e+31,0.03468,0.000274494,1.8061e-09,7.27892e-58,2.50488e+15,1.22506e+16,1.09143e+12,1.47566e+16
950001,109990,8.11097e+06,3.9503e+23,1.08417e+20,2.97234e+10,0.284458,3.18686e+31,0.03468,0.000274494,1.8061e-09,7.27891e-58,2.5048e+15,1.22503e+16,1.0914e+12,1.47562e+16
1.05e+06,109988,8.1109e+06,5.33361e+23,1.46378e+20,3.28521e+10,0.284463,3.18657e+31,0.03468,0.000274494,1.8061e-09,7.27891e-58,2.50472e+15,1.22499e+16,1.09136e+12,1.47558e+16
1.15e+06,109985,8.11082e+06,7.00715e+23,1.923e+20,3.59809e+10,0.284469,3.18624e+31,0.03468,0.000274494,1.8061e-09,7.2789e-58,2.50463e+15,1.22496e+16,1.09131e+12,1.47553e+16
1.25e+06,109983,8.11073e+06,8.99853e+23,2.4694e+20,3.91096e+10,0.284475,3.18589e+31,0.03468,0.000274493,1.8061e-09,7.27888e-58,2.50453e+15,1.22491e+16,1.09126e+12,1.47547e+16
1.35e+06,109980,8.11063e+06,1.13354e+24,3.11055e+20,4.22383e+10,0.284481,3.18551e+31,0.03468,0.000274493,1.8061e-09,7.27886e-58,2.50442e+15,1.22487e+16,1.09121e+12,1.47542e+16
1.45e+06,109977,8.11053e+06,1.40453e+24,3.854e+20,4.5367e+10,0.284489,3.18509e+31,0.03468,0.000274493,1.8061e-09,7.27886e-58,2.5043e+15,1.22482e+16,1.09116e+12,1.47536e+16
1.55e+06,109974,8.11042e+06,1.71559e+24,4.70731e+20,4.84958e+10,0.284496,3.18465e+31,0.03468,0.000274493,1.8061e-09,7.27885e-58,2.50418e+15,1.22476e+16,1.0911e+12,1.47529e+16
1.65e+06,109970,8.1103e+06,2.06949e+24,5.67802e+20,5.16245e+10,0.284505,3.18418e+31,0.03468,0.000274493,1.80609e-09,7.27881e-58,2.50404e+15,1.22471e+16,1.09103e+12,1.47522e+16
1.75e+06,109966,8.11017e+06,2.46897e+24,6.77369e+20,5.47532e+10,0.284513,3.18368e+31,0.03468,0.000274493,1.80609e-09,7.27879e-58,2.5039e+15,1.22464e+16,1.09096e+12,1.47514e+16
1.85e+06,109962,8.11004e+06,2.91681e+24,8.00185e+20,5.78818e+10,0.284523,3.18315e+31,0.03468,0.000274493,1.80608e-09,7.27869e-58,2.50375e+15,1.22458e+16,1.09089e+12,1.47506e+16
1.95e+06,109958,8.1099e+06,3.41576e+24,9.37004e+20,6.10105e+10,0.284532,3.18259e+31,0.03468,0.000274492,1.80607e-09,7.27862e-58,2.50359e+15,1.22451e+16,1.09082e+12,1.47498e+16
2.05e+06,109954,8.10975e+06,3.96857e+24,1.08858e+21,6.41392e+10,0.284543,3.182e+31,0.03468,0.000274492,1.80607e-09,7.27862e-58,2.50343e+15,1.22444e+16,1.09074e+12,1.47489e+16
2.15e+06,109949,8.10959e+06,4.57801e+24,1.25566e+21,6.72678e+10,0.284553,3.18139e+31,0.03468,0.000274492,1.80606e-09,7.27857e-58,2.50325e+15,1.22437e+16,1.09065e+12,1.4748e+16
2.25e+06,109944,8.10943e+06,5.24684e+24,1.43899e+21,7.03965e+10,0.284565,3.18074e+31,0.03468,0.000274491,1.80605e-09,7.27847e-58,2.50307e+15,1.22429e+16,1.09056e+12,1.4747e+16
2.35e+06,109939,8.10926e+06,5.9778e+24,1.63934e+21,7.35251e+10,0.284577,3.18006e+31,0.03468,0.000274491,1.80605e-09,7.27841e-58,2.50288e+15,1.22421e+16,1.09047e+12,1.4746e+16
2.45e+06,109934,8.10908e+06,6.77367e+24,1.85745e+21,7.66537e+10,0.284589,3.17936e+31,0.03468,0.00027449,1.80602e-09,7.2782e-58,2.50268e+15,1.22412e+16,1.09038e+12,1.4745e+16
2.55e+06,109929,8.10889e+06,7.63718e+24,2.09406e+21,7.97823e+10,0.284602,3.17862e+31,0.03468,0.000274489,1.806e-09,7.27797e-58,2.50247e+15,1.22403e+16,1.09028e+12,1.47439e+16
2.65e+06,109923,8.1087e+06,8.5711e+24,2.34992e+21,8.29109e+10,0.284615,3.17786e+31,0.03468,0.000274489,1.806e-09,7.27802e-58,2.50225e+15,1.22394e+16,1.09017e+12,1.47427e+16
2.75e+06,109917,8.1085e+06,9.57818e+24,2.62579e+21,8.60395e+10,0.284629,3.17706e+31,0.03468,0.000274489,1.80599e-09,7.27792e-58,2.50203e+15,1.22384e+16,1.09006e+12,1.47415e+16
2.85e+06,109911,8.10829e+06,1.06612e+25,2.92241e+21,8.9168e+10,0.284644,3.17624e+31,0.03468,0.000274488,1.80597e-09,7.27776e-58,2.5018e+15,1.22374e+16,1.08995e+12,1.47403e+16
2.95e+06,109904,8.10807e+06,1.18228e+25,3.24052e+21,9.22965e+10,0.284659,3.17539e+31,0.03468,0.000274488,1.80596e-09,7.27767e-58,2.50155e+15,1.22364e+16,1.08984e+12,1.4739e+16
3.05e+06,109898,8.10785e+06,1.30659e+25,3.58087e+21,9.54251e+10,0.284674,3.17451e+31,0.03468,0.000274486,1.80593e-09,7.27737e-58,2.50131e+15,1.22353e+16,1.08972e+12,1.47377e+16
3.15e+06,109891,8.10762e+06,1.43931e+25,3.9442e+21,9.85536e+10,0.28469,3.1736e+31,0.03468,0.000274484,1.80588e-09,7.27698e-58,2.50105e+15,1.22342e+16,1.08959e+12,1.47364e+16
3.25e+06,109884,8.10738e+06,1.58073e+25,4.33125e+21,1.01682e+11,0.284707,3.17266e+31,0.03468,0.000274485,1.8059e-09,7.27709e-58,2.50078e+15,1.22331e+16,1.08946e+12,1.47349e+16
3.35e+06,109877,8.10714e+06,1.73111e+25,4.74277e+21,1.04811e+11,0.284724,3.17169e+31,0.03468,0.000274484,1.80588e-09,7.27695e-58,2.50051e+15,1.22319e+16,1.08933e+12,1.47335e+16
3.45e+06,109869,8.10689e+06,1.89073e+25,5.17949e+21,1.07939e+11,0.284741,3.17069e+31,0.03468,0.000274483,1.80586e-09,7.27673e-58,2.50022e+15,1.22307e+16,1.0892e+12,1.4732e+16
3.55e+06,109862,8.10663e+06,2.05987e+25,5.64215e+21,1.11067e+11,0.284759,3.16967e+31,0.03468,0.000274482,1.80584e-09,7.2766e-58,2.49993e+15,1.22294e+16,1.08906e+12,1.47305e+16
3.65e+06,109854,8.10636e+06,2.23879e+25,6.1315e+21,1.14196e+11,0.284778,3.16861e+31,0.03468,0.000274481,1.8058e-09,7.27621e-58,2.49963e+15,1.22282e+16,1.08891e+12,1.47289e+16
3.75e+06,109846,8.10608e+06,2.42778e+25,6.64826e+21,1.17324e+11,0.284797,3.16753e+31,0.03468,0.000274478,1.80574e-09,7.27568e-58,2.49933e+15,1.22268e+16,1.08877e+12,1.47273e+16
3.85e+06,109837,8.1058e+06,2.62711e+25,7.19317e+21,1.20453e+11,0.284817,3.16642e+31,0.03468,0.000274479,1.80575e-09,7.27584e-58,2.49901e+15,1.22255e+16,1.08861e+12,1.47256e+16
3.95e+06,109829,8.10551e+06,2.83705e+25,7.76697e+21,1.23581e+11,0.284837,3.16528e+31,0.03468,0.000274478,1.80573e-09,7.27566e-58,2.49869e+15,1.22241e+16,1.08846e+12,1.47239e+16
4.05e+06,109820,8.10521e+06,3.05788e+25,8.37039e+21,1.26709e+11,0.284857,3.16411e+31,0.03468,0.000274477,1.8057e-09,7.27537e-58,2.49836e+15,1.22227e+16,1.0883e+12,1.47221e+16
4.15e+06,109811,8.10491e+06,3.28987e+25,9.00416e+21,1.29838e+11,0.284878,3.16291e+31,0.03468,0.000274476,1.80568e-09,7.27521e-58,2.49801e+15,1.22212e+16,1.08813e+12,1.47203e+16
4.25e+06,109802,8.1046e+06,3.53329e+25,9.66901e+21,1.32966e+11,0.2849,3.16168e+31,0.03468,0.000274473,1.80563e-09,7.27473e-58,2.49767e+15,1.22197e+16,1.08797e+12,1.47185e+16
4.35e+06,109792,8.10428e+06,3.78841e+25,1.03657e+22,1.36094e+11,0.284922,3.16042e+31,0.03468,0.00027447,1.80555e-09,7.27405e-58,2.49731e+15,1.22182e+16,1.0878e+12,1.47166e+16
4.45e+06,109783,8.10395e+06,4.05552e+25,1.10949e+22,1.39222e+11,0.284945,3.15914e+31,0.03468,0.000274471,1.80558e-09,7.27427e-58,2.49694e+15,1.22166e+16,1.08762e+12,1.47147e+16
4.55e+06,109773,8.10362e+06,4.33489e+25,1.18573e+22,1.4235e+11,0.284968,3.15782e+31,0.03468,0.00027447,1.80555e-09,7.27405e-58,2.49657e+15,1.2215e+16,1.08744e+12,1.47127e+16
4.65e+06,109763,8.10328e+06,4.62678e+25,1.26538e+22,1.45479e+11,0.284992,3.15648e+31,0.03468,0.000274469,1.80551e-09,7.2737e-58,2.49619e+15,1.22134e+16,1.08726e+12,1.47107e+16
4.75e+06,109753,8.10293e+06,4.93147e+25,1.34849e+22,1.48607e+11,0.285016,3.15511e+31,0.03468,0.000274467,1.80549e-09,7.2735e-58,2.4958e+15,1.22117e+16,1.08707e+12,1.47086e+16
4.85e+06,109742,8.10257e+06,5.24923e+25,1.43515e+22,1.51735e+11,0.285041,3.15371e+31,0.03468,0.000274465,1.80542e-09,7.27293e-58,2.4954e+15,1.221e+16,1.08688e+12,1.47065e+16
4.95e+06,109731,8.10221e+06,5.58034e+25,1.52542e+22,1.54863e+11,0.285066,3.15228e+31,0.03468,0.000274461,1.80533e-09,7.27211e-58,2.495e+15,1.22083e+16,1.08668e+12,1.47044e+16
5.05e+06,109720,8.10183e+06,5.92506e+25,1.61938e+22,1.57991e+11,0.285092,3.15082e+31,0.03468,0.000274462,1.80536e-09,7.27237e-58,2.49458e+15,1.22065e+16,1.08648e+12,1.47022e+16
5.15e+06,109709,8.10146e+06,6.28368e+25,1.7171e+22,1.61119e+11,0.285119,3.14934e+31,0.03468,0.000274461,1.80533e-09,7.27211e-58,2.49416e+15,1.22047e+16,1.08628e+12,1.46999e+16
5.25e+06,109698,8.10107e+06,6.65646e+25,1.81864e+22,1.64247e+11,0.285145,3.14782e+31,0.03468,0.000274459,1.80529e-09,7.2717e-58,2.49373e+15,1.22029e+16,1.08607e+12,1.46977e+16
5.35e+06,109686,8.10068e+06,7.04367e+25,1.92409e+22,1.67375e+11,0.285173,3.14628e+31,0.03468,0.000274458,1.80526e-09,7.27147e-58,2.49329e+15,1.2201e+16,1.08586e+12,1.46953e+16
5.45e+06,109675,8.10028e+06,7.44559e+25,2.03351e+22,1.70503e+11,0.285201,3.14471e+31,0.03468,0.000274455,1.80518e-09,7.2708e-58,2.49284e+15,1.21991e+16,1.08565e+12,1.4693e+16
5.55e+06,109663,8.09987e+06,7.86249e+25,2.14697e+22,1.73631e+11,0.285229,3.14311e+31,0.03468,0.00027445,1.80508e-09,7.26985e-58,2.49239e+15,1.21971e+16,1.08543e+12,1.46906e+16
5.65e+06,109650,8.09945e+06,8.29464e+25,2.26454e+22,1.76759e+11,0.285258,3.14149e+31,0.03468,0.000274451,1.80511e-09,7.27015e-58,2.49192e+15,1.21951e+16,1.08521e+12,1.46881e+16
5.75e+06,109638,8.09903e+06,8.74231e+25,2.3863e+22,1.79887e+11,0.285288,3.13983e+31,0.03468,0.00027445,1.80508e-09,7.26985e-58,2.49145e+15,1.21931e+16,1.08498e+12,1.46856e+16
5.85e+06,109625,8.0986e+06,9.20577e+25,2.51231e+22,1.83015e+11,0.285318,3.13815e+31,0.03468,0.000274448,1.80502e-09,7.26938e-58,2.49097e+15,1.2191e+16,1.08475e+12,1.46831e+16
5.95e+06,109612,8.09816e+06,9.68529e+25,2.64265e+22,1.86142e+11,0.285348,3.13644e+31,0.03468,0.000274446,1.80499e-09,7.26912e-58,2.49048e+15,1.21889e+16,1.08452e+12,1.46805e+16
6.05e+06,109599,8.09771e+06,1.01811e+26,2.77738e+22,1.8927e+11,0.285379,3.1347e+31,0.03468,0.000274443,1.80491e-09,7.26836e-58,2.48999e+15,1.21868e+16,1.08428e+12,1.46779e+16
6.15e+06,109586,8.09726e+06,1.06936e+26,2.91657e+22,1.92398e+11,0.285411,3.13293e+31,0.03468,0.000274437,1.80478e-09,7.26727e-58,2.48948e+15,1.21847e+16,1.08403e+12,1.46752e+16
6.25e+06,109572,8.0968e+06,1.12229e+26,3.0603e+22,1.95526e+11,0.285443,3.13114e+31,0.03468,0.000274439,1.80482e-09,7.26761e-58,2.48897e+15,1.21825e+16,1.08379e+12,1.46725e+16
6.35e+06,109559,8.09633e+06,1.17694e+26,3.20863e+22,1.98653e+11,0.285475,3.12931e+31,0.03468,0.000274437,1.80478e-09,7.26727e-58,2.48845e+15,1.21802e+16,1.08354e+12,1.46698e+16
6.45e+06,109545,8.09586e+06,1.23333e+26,3.36164e+22,2.01781e+11,0.285508,3.12746e+31,0.03468,0.000274435,1.80472e-09,7.26674e-58,2.48792e+15,1.2178e+16,1.08328e+12,1.4667e+16
6.55e+06,109530,8.09538e+06,1.29149e+26,3.51938e+22,2.04908e+11,0.285542,3.12559e+31,0.03468,0.000274433,1.80469e-09,7.26644e-58,2.48738e+15,1.21757e+16,1.08303e+12,1.46641e+16
6.65e+06,109516,8.09489e+06,1.35144e+26,3.68193e+22,2.08036e+11,0.285576,3.12368e+31,0.03468,0.000274429,1.80459e-09,7.26559e-58,2.48684e+15,1.21733e+16,1.08276e+12,1.46612e+16
6.75e+06,109501,8.09439e+06,1.41322e+26,3.84936e+22,2.11163e+11,0.285611,3.12175e+31,0.03468,0.000274423,1.80445e-09,7.26436e-58,2.48628e+15,1.21709e+16,1.0825e+12,1.46583e+16
6.85e+06,109486,8.09389e+06,1.47684e+26,4.02174e+22,2.14291e+11,0.285646,3.11978e+31,0.03468,0.000274425,1.8045e-09,7.26475e-58,2.48572e+15,1.21685e+16,1.08223e+12,1.46553e+16
6.95e+06,109471,8.09338e+06,1.54234e+26,4.19913e+22,2.17418e+11,0.285682,3.1178e+31,0.03468,0.000274423,1.80446e-09,7.26437e-58,2.48515e+15,1.21661e+16,1.08195e+12,1.46523e+16
7.05e+06,109456,8.09286e+06,1.60975e+26,4.3816e+22,2.20546e+11,0.285718,3.11578e+31,0.03468,0.000274421,1.80439e-09,7.26378e-58,2.48458e+15,1.21636e+16,1.08168e+12,1.46493e+16
7.15e+06,109441,8.09233e+06,1.67908e+26,4.56923e+22,2.23673e+11,0.285755,3.11374e+31,0.03468,0.000274419,1.80435e-09,7.26345e-58,2.48399e+15,1.21611e+16,1.0814e+12,1.46462e+16
7.25e+06,109425,8.0918e+06,1.75037e+26,4.76206e+22,2.268e+11,0.285792,3.11166e+31,0.03468,0.000274415,1.80424e-09,7.2625e-58,2.4834e+15,1.21586e+16,1.08111e+12,1.4643e+16
7.35e+06,109409,8.09126e+06,1.82365e+26,4.96019e+22,2.29928e+11,0.28583,3.10957e+31,0.03468,0.000274407,1.80409e-09,7.26114e-58,2.48279e+15,1.2156e+16,1.08082e+12,1.46399e+16
7.45e+06,109393,8.09071e+06,1.89893e+26,5.16366e+22,2.33055e+11,0.285868,3.10744e+31,0.03468,0.00027441,1.80414e-09,7.26157e-58,2.48218e+15,1.21534e+16,1.08053e+12,1.46366e+16
7.55e+06,109377,8.09015e+06,1.97625e+26,5.37255e+22,2.36182e+11,0.285907,3.10529e+31,0.03468,0.000274408,1.80409e-09,7.26115e-58,2.48157e+15,1.21507e+16,1.08023e+12,1.46334e+16
7.65e+06,109360,8.08959e+06,2.05564e+26,5.58693e+22,2.39309e+11,0.285946,3.10311e+31,0.03468,0.000274405,1.80402e-09,7.2605e-58,2.48094e+15,1.2148e+16,1.07993e+12,1.463e+16
7.75e+06,109343,8.08902e+06,2.13711e+26,5.80685e+22,2.42436e+11,0.285986,3.1009e+31,0.03468,0.000274403,1.80397e-09,7.26013e-58,2.48031e+15,1.21453e+16,1.07963e+12,1.46267e+16
7.85e+06,109326,8.08844e+06,2.2207e+26,6.03239e+22,2.45563e+11,0.286027,3.09866e+31,0.03468,0.000274398,1.80386e-09,7.25909e-58,2.47966e+15,1.21425e+16,1.07932e+12,1.46233e+16
7.95e+06,109309,8.08785e+06,2.30644e+26,6.26361e+22,2.4869e+11,0.286068,3.0964e+31,0.03468,0.00027439,1.80369e-09,7.25759e-58,2.47901e+15,1.21398e+16,1.079e+12,1.46199e+16
8.05e+06,109292,8.08726e+06,2.39434e+26,6.50058e+22,2.51817e+11,0.286109,3.09412e+31,0.03468,0.000274393,1.80374e-09,7.25807e-58,2.47835e+15,1.21369e+16,1.07869e+12,1.46164e+16
8.15e+06,109274,8.08666e+06,2.48445e+26,6.74336e+22,2.54944e+11,0.286151,3.0918e+31,0.03468,0.000274391,1.80369e-09,7.25761e-58,2.47769e+15,1.21341e+16,1.07837e+12,1.46128e+16
8.25e+06,109256,8.08605e+06,2.57677e+26,6.99201e+22,2.58071e+11,0.286194,3.08946e+31,0.03468,0.000274387,1.80361e-09,7.25689e-58,2.47701e+15,1.21312e+16,1.07804e+12,1.46093e+16
8.35e+06,109238,8.08544e+06,2.67135e+26,7.24661e+22,2.61198e+11,0.286237,3.08709e+31,0.03468,0.000274385,1.80356e-09,7.2565e-58,2.47633e+15,1.21283e+16,1.07772e+12,1.46057e+16
8.45e+06,109220,8.08482e+06,2.7682e+26,7.50721e+22,2.64325e+11,0.28628,3.08469e+31,0.03468,0.00027438,1.80343e-09,7.25536e-58,2.47564e+15,1.21253e+16,1.07738e+12,1.4602e+16
8.55e+06,109201,8.08419e+06,2.86736e+26,7.77388e+22,2.67452e+11,0.286324,3.08227e+31,0.03468,0.000274371,1.80325e-09,7.25373e-58,2.47494e+15,1.21223e+16,1.07705e+12,1.45983e+16
8.65e+06,109183,8.08355e+06,2.96884e+26,8.04669e+22,2.70578e+11,0.286369,3.07982e+31,0.03468,0.000274374,1.80331e-09,7.25425e-58,2.47424e+15,1.21193e+16,1.07671e+12,1.45946e+16
8.75e+06,109164,8.08291e+06,3.07269e+26,8.32569e+22,2.73705e+11,0.286414,3.07735e+31,0.03468,0.000274372,1.80325e-09,7.25375e-58,2.47352e+15,1.21162e+16,1.07637e+12,1.45908e+16
8.85e+06,109145,8.08225e+06,3.17891e+26,8.61095e+22,2.76832e+11,0.28646,3.07485e+31,0.03468,0.000274369,1.80316e-09,7.25297e-58,2.4728e+15,1.21131e+16,1.07602e+12,1.4587e+16
8.95e+06,109125,8.0816e+06,3.28754e+26,8.90253e+22,2.79958e+11,0.286506,3.07232e+31,0.03468,0.000274366,1.80311e-09,7.25254e-58,2.47207e+15,1.211e+16,1.07567e+12,1.45831e+16
9.05e+06,109106,8.08093e+06,3.39861e+26,9.2005e+22,2.83085e+11,0.286553,3.06977e+31,0.03468,0.000274361,1.80297e-09,7.25131e-58,2.47133e+15,1.21068e+16,1.07531e+12,1.45792e+16
9.15e+06,109086,8.08026e+06,3.51214e+26,9.50492e+22,2.86211e+11,0.2866,3.06719e+31,0.03468,0.000274351,1.80277e-09,7.24955e-58,2.47058e+15,1.21036e+16,1.07496e+12,1.45753e+16
9.25e+06,109066,8.07958e+06,3.62816e+26,9.81584e+22,2.89337e+11,0.286648,3.06458e+31,0.03468,0.000274354,1.80284e-09,7.25011e-58,2.46983e+15,1.21004e+16,1.07459e+12,1.45713e+16
9.35e+06,109046,8.07889e+06,3.74669e+26,1.01333e+23,2.92464e+11,0.286696,3.06195e+31,0.03468,0.000274352,1.80278e-09,7.24957e-58,2.46907e+15,1.20971e+16,1.07423e+12,1.45672e+16
9.45e+06,109025,8.07819e+06,3.86776e+26,1.04575e+23,2.9559e+11,0.286745,3.05929e+31,0.03468,0.000274348,1.80268e-09,7.24873e-58,2.4683e+15,1.20938e+16,1.07386e+12,1.45632e+16
9.55e+06,109005,8.07749e+06,3.99139e+26,1.07883e+23,2.98716e+11,0.286794,3.05661e+31,0.03468,0.000274346,1.80263e-09,7.24826e-58,2.46752e+15,1.20904e+16,1.07348e+12,1.4559e+16
9.65e+06,108984,8.07678e+06,4.11762e+26,1.11259e+23,3.01842e+11,0.286844,3.0539e+31,0.03468,0.00027434,1.80248e-09,7.24694e-58,2.46673e+15,1.20871e+16,1.07311e+12,1.45549e+16
9.75e+06,108963,8.07606e+06,4.24647e+26,1.14703e+23,3.04969e+11,0.286894,3.05116e+31,0.03468,0.000274329,1.80226e-09,7.24505e-58,2.46594e+15,1.20837e+16,1.07273e+12,1.45507e+16
9.85e+06,108942,8.07534e+06,4.37796e+26,1.18215e+23,3.08095e+11,0.286945,3.0484e+31,0.03468,0.000274333,1.80233e-09,7.24565e-58,2.46514e+15,1.20802e+16,1.07234e+12,1.45464e+16
9.95e+06,108920,8.0746e+06,4.51213e+26,1.21797e+23,3.11221e+11,0.286997,3.04562e+31,0.03468,0.00027433,1.80226e-09,7.24508e-58,2.46433e+15,1.20767e+16,1.07195e+12,1.45421e+16
1.005e+07,108898,8.07386e+06,4.64899e+26,1.25449e+23,3.14347e+11,0.287049,3.0428e+31,0.03468,0.000274326,1.80216e-09,7.24417e-58,2.46351e+15,1.20732e+16,1.07156e+12,1.45378e+16
1.015e+07,108877,8.07312e+06,4.78857e+26,1.29172e+23,3.17473e+11,0.287101,3.03997e+31,0.03468,0.000274323,1.80211e-09,7.24367e-58,2.46268e+15,1.20697e+16,1.07116e+12,1.45334e+16
1.025e+07,108854,8.07236e+06,4.93091e+26,1.32966e+23,3.20598e+11,0.287154,3.0371e+31,0.03468,0.000274317,1.80194e-09,7.24226e-58,2.46185e+15,1.20661e+16,1.07076e+12,1.4529e+16
1.035e+07,108832,8.0716e+06,5.07601e+26,1.36831e+23,3.23724e+11,0.287208,3.03422e+31,0.03468,0.000274306,1.80171e-09,7.24023e-58,2.46101e+15,1.20625e+16,1.07036e+12,1.45246e+16
1.045e+07,108810,8.07083e+06,5.22392e+26,1.40769e+23,3.2685e+11,0.287262,3.0313e+31,0.03468,0.00027431,1.80179e-09,7.24087e-58,2.46016e+15,1.20589e+16,1.06995e+12,1.45201e+16
1.055e+07,108787,8.07006e+06,5.37466e+26,1.44779e+23,3.29976e+11,0.287317,3.02837e+31,0.03468,0.000274307,1.80172e-09,7.24026e-58,2.4593e+15,1.20552e+16,1.06954e+12,1.45155e+16
1.065e+07,108764,8.06928e+06,5.52825e+26,1.48863e+23,3.33101e+11,0.287372,3.0254e+31,0.03468,0.000274302,1.80161e-09,7.23929e-58,2.45844e+15,1.20515e+16,1.06912e+12,1.4511e+16
1.075e+07,108741,8.06848e+06,5.68471e+26,1.53021e+23,3.36227e+11,0.287428,3.02241e+31,0.03468,0.0002743,1.80155e-09,7.23876e-58,2.45757e+15,1.20477e+16,1.06871e+12,1.45063e+16
1.085e+07,108717,8.06769e+06,5.84408e+26,1.57254e+23,3.39352e+11,0.287484,3.0194e+31,0.03468,0.000274293,1.80138e-09,7.23725e-58,2.45668e+15,1.20439e+16,1.06828e+12,1.45017e+16
1.095e+07,108694,8.06688e+06,6.00638e+26,1.61562e+23,3.42478e+11,0.28754,3.01636e+31,0.03468,0.000274281,1.80113e-09,7.23509e-58,2.4558e+15,1.20401e+16,1.06786e+12,1.4497e+16
1.105e+07,108670,8.06607e+06,6.17164e+26,1.65945e+23,3.45603e+11,0.287598,3.0133e+31,0.03468,0.000274285,1.80121e-09,7.23578e-58,2.4549e+15,1.20363e+16,1.06743e+12,1.44922e+16
