X = 0.734
Y = 0.25
Z = 0.016
mu = 0.601142
Radius,Density,Temp,Mass,Lum,OptD,Kff,KH,Kes,PP,CNO,3a,Deg,Gas,Rad,TotPres
0,0,0,0,0,0,-nan,0,0.03468,0.0292861,0.00214855,1.20771e-44,0,0,0,0
1,1.12549e+06,1.45759e+07,4.71442e+06,148196,209593,0.186224,1.99263e+34,0.03468,0.0292861,0.00214855,1.20771e-44,1.20805e+17,2.25267e+17,1.13825e+13,3.46083e+17
100026,1.12548e+06,1.45759e+07,4.71812e+21,1.48311e+20,2.09648e+10,0.186225,1.99259e+34,0.03468,0.0292861,0.00214855,1.20771e-44,1.20804e+17,2.25265e+17,1.13824e+13,3.46081e+17
200036,1.12547e+06,1.45758e+07,3.77353e+22,1.18615e+21,4.19261e+10,0.186228,1.99247e+34,0.03468,0.0292861,0.00214855,1.20771e-44,1.20802e+17,2.25261e+17,1.13821e+13,3.46074e+17
300075,1.12544e+06,1.45757e+07,1.27382e+23,4.00388e+21,6.28935e+10,0.186232,1.99227e+34,0.03468,0.0292861,0.00214855,1.20771e-44,1.20798e+17,2.25254e+17,1.13816e+13,3.46063e+17
400340,1.12541e+06,1.45755e+07,3.02482e+23,9.50708e+21,8.39085e+10,0.186237,1.99198e+34,0.03468,0.0292861,0.00214855,1.20771e-44,1.20792e+17,2.25245e+17,1.1381e+13,3.46048e+17
500509,1.12537e+06,1.45752e+07,5.91067e+23,1.8576e+22,1.04903e+11,0.186245,1.99161e+34,0.03468,0.0292861,0.00214855,1.20771e-44,1.20785e+17,2.25232e+17,1.13801e+13,3.46028e+17
600559,1.12532e+06,1.45749e+07,1.02108e+24,3.20871e+22,1.25873e+11,0.186253,1.99117e+34,0.03468,0.0292861,0.00214855,1.20771e-44,1.20776e+17,2.25217e+17,1.13791e+13,3.46004e+17
700971,1.12526e+06,1.45745e+07,1.62359e+24,5.10153e+22,1.46919e+11,0.186264,1.99063e+34,0.03468,0.0292861,0.00214855,1.20771e-44,1.20765e+17,2.25199e+17,1.13779e+13,3.45976e+17
801241,1.12519e+06,1.4574e+07,2.42466e+24,7.61758e+22,1.67935e+11,0.186276,1.99002e+34,0.03468,0.0292861,0.00214855,1.20771e-44,1.20753e+17,2.25179e+17,1.13765e+13,3.45943e+17
901604,1.12512e+06,1.45735e+07,3.45454e+24,1.08516e+23,1.88971e+11,0.18629,1.98933e+34,0.03468,0.0292861,0.00214855,1.20771e-44,1.20739e+17,2.25155e+17,1.13749e+13,3.45905e+17
1.00174e+06,1.12503e+06,1.45729e+07,4.73793e+24,1.48806e+23,2.0996e+11,0.186305,1.98855e+34,0.03468,0.0292861,0.00214855,1.20771e-44,1.20723e+17,2.25129e+17,1.13731e+13,3.45864e+17
1.10225e+06,1.12493e+06,1.45723e+07,6.31157e+24,1.98193e+23,2.31026e+11,0.186322,1.98769e+34,0.03468,0.0292861,0.00214855,1.20771e-44,1.20706e+17,2.251e+17,1.13711e+13,3.45817e+17
1.20292e+06,1.12483e+06,1.45716e+07,8.20318e+24,2.57541e+23,2.52126e+11,0.186341,1.98675e+34,0.03468,0.0292861,0.00214855,1.20771e-44,1.20687e+17,2.25068e+17,1.1369e+13,3.45767e+17
1.30301e+06,1.12471e+06,1.45709e+07,1.04255e+25,3.2724e+23,2.73107e+11,0.186361,1.98573e+34,0.03468,0.0292861,0.00214855,1.20771e-44,1.20667e+17,2.25034e+17,1.13666e+13,3.45712e+17
1.40304e+06,1.12459e+06,1.45701e+07,1.30145e+25,4.08409e+23,2.94072e+11,0.186383,1.98463e+34,0.03468,0.0292861,0.00214855,1.20771e-44,1.20645e+17,2.24997e+17,1.13641e+13,3.45653e+17
1.50398e+06,1.12446e+06,1.45692e+07,1.60295e+25,5.02896e+23,3.15231e+11,0.186407,1.98344e+34,0.03468,0.0292861,0.00214855,1.20771e-44,1.20621e+17,2.24957e+17,1.13614e+13,3.45589e+17
1.60499e+06,1.12431e+06,1.45683e+07,1.94794e+25,6.10962e+23,3.36403e+11,0.186432,1.98217e+34,0.03468,0.0292861,0.00214855,1.20771e-44,1.20595e+17,2.24914e+17,1.13585e+13,3.4552e+17
1.70513e+06,1.12416e+06,1.45673e+07,2.33556e+25,7.32328e+23,3.57392e+11,0.186459,1.98083e+34,0.03468,0.0292861,0.00214855,1.20771e-44,1.20568e+17,2.24868e+17,1.13554e+13,3.45448e+17
1.80611e+06,1.124e+06,1.45662e+07,2.77533e+25,8.69954e+23,3.78559e+11,0.186488,1.97939e+34,0.03468,0.0292861,0.00214855,1.20771e-44,1.2054e+17,2.2482e+17,1.13521e+13,3.45371e+17
1.90736e+06,1.12383e+06,1.45651e+07,3.26849e+25,1.0242e+24,3.99784e+11,0.186518,1.97787e+34,0.03468,0.0292861,0.00214855,1.20771e-44,1.20509e+17,2.24768e+17,1.13486e+13,3.45289e+17
2.0083e+06,1.12365e+06,1.45639e+07,3.81493e+25,1.19503e+24,4.2094e+11,0.18655,1.97628e+34,0.03468,0.0292861,0.00214855,1.20771e-44,1.20477e+17,2.24714e+17,1.13449e+13,3.45202e+17
2.10984e+06,1.12346e+06,1.45627e+07,4.4229e+25,1.38497e+24,4.42225e+11,0.186584,1.97459e+34,0.03468,0.0292861,0.00214855,1.20771e-44,1.20443e+17,2.24657e+17,1.13411e+13,3.45111e+17
2.20991e+06,1.12326e+06,1.45614e+07,5.082e+25,1.59077e+24,4.63202e+11,0.186619,1.97285e+34,0.03468,0.0292861,0.00214855,1.20771e-44,1.20408e+17,2.24598e+17,1.1337e+13,3.45017e+17
2.31127e+06,1.12306e+06,1.456e+07,5.81323e+25,1.81894e+24,4.8445e+11,0.186656,1.971e+34,0.03468,0.0292861,0.00214855,1.20771e-44,1.20371e+17,2.24535e+17,1.13328e+13,3.44917e+17
2.41188e+06,1.12284e+06,1.45586e+07,6.60512e+25,2.06587e+24,5.0554e+11,0.186694,1.96909e+34,0.03468,0.0292861,0.00214855,1.20771e-44,1.20332e+17,2.2447e+17,1.13284e+13,3.44814e+17
2.51311e+06,1.12261e+06,1.45571e+07,7.47132e+25,2.33578e+24,5.26761e+11,0.186734,1.96708e+34,0.03468,0.0292861,0.00214855,1.20771e-44,1.20292e+17,2.24402e+17,1.13238e+13,3.44705e+17
2.61469e+06,1.12238e+06,1.45556e+07,8.41334e+25,2.6291e+24,5.48056e+11,0.186776,1.96499e+34,0.03468,0.0292861,0.00214855,1.20771e-44,1.2025e+17,2.24331e+17,1.13189e+13,3.44592e+17
2.71632e+06,1.12213e+06,1.45539e+07,9.43178e+25,2.94598e+24,5.69361e+11,0.18682,1.96281e+34,0.03468,0.0292861,0.00214855,1.20771e-44,1.20206e+17,2.24257e+17,1.13139e+13,3.44474e+17
2.81769e+06,1.12188e+06,1.45523e+07,1.05262e+26,3.28623e+24,5.90612e+11,0.186866,1.96056e+34,0.03468,0.0292861,0.00214855,1.20771e-44,1.2016e+17,2.2418e+17,1.13087e+13,3.44352e+17
2.91849e+06,1.12162e+06,1.45506e+07,1.16951e+26,3.64934e+24,6.11744e+11,0.186912,1.95825e+34,0.03468,0.0292861,0.00214855,1.20771e-44,1.20113e+17,2.24101e+17,1.13034e+13,3.44226e+17
3.02064e+06,1.12134e+06,1.45487e+07,1.29648e+26,4.0434e+24,6.3316e+11,0.186962,1.95582e+34,0.03468,0.0292861,0.00214855,1.20771e-44,1.20064e+17,2.24018e+17,1.12978e+13,3.44094e+17
3.12171e+06,1.12106e+06,1.45469e+07,1.4308e+26,4.45993e+24,6.54348e+11,0.187012,1.95334e+34,0.03468,0.0292861,0.00214855,1.20771e-44,1.20014e+17,2.23934e+17,1.1292e+13,3.43959e+17
3.22375e+06,1.12077e+06,1.4545e+07,1.5755e+26,4.90824e+24,6.75743e+11,0.187064,1.95076e+34,0.03468,0.0292861,0.00214855,1.20771e-44,1.19962e+17,2.23845e+17,1.12861e+13,3.43818e+17
3.32417e+06,1.12047e+06,1.4543e+07,1.72709e+26,5.37743e+24,6.96795e+11,0.187117,1.94814e+34,0.03468,0.0292861,0.00214855,1.20771e-44,1.19909e+17,2.23756e+17,1.128e+13,3.43676e+17
3.42516e+06,1.12016e+06,1.4541e+07,1.88902e+26,5.87816e+24,7.17969e+11,0.187173,1.94543e+34,0.03468,0.0292861,0.00214855,1.20771e-44,1.19854e+17,2.23663e+17,1.12737e+13,3.43528e+17
3.52659e+06,1.11984e+06,1.45389e+07,2.0615e+26,6.41101e+24,7.39236e+11,0.18723,1.94263e+34,0.03468,0.0292861,0.00214855,1.20771e-44,1.19797e+17,2.23567e+17,1.12672e+13,3.43375e+17
3.62832e+06,1.11951e+06,1.45367e+07,2.24471e+26,6.97637e+24,7.60566e+11,0.187289,1.93974e+34,0.03468,0.0292861,0.00214855,1.20771e-44,1.19738e+17,2.23468e+17,1.12605e+13,3.43217e+17
3.73021e+06,1.11917e+06,1.45345e+07,2.43872e+26,7.57447e+24,7.81928e+11,0.18735,1.93677e+34,0.03468,0.0292861,0.00214855,1.20771e-44,1.19677e+17,2.23366e+17,1.12536e+13,3.43054e+17
3.8321e+06,1.11882e+06,1.45322e+07,2.64357e+26,8.20529e+24,8.03293e+11,0.187412,1.93373e+34,0.03468,0.0292861,0.00214855,1.20771e-44,1.19615e+17,2.23261e+17,1.12465e+13,3.42888e+17
3.93384e+06,1.11846e+06,1.45299e+07,2.85922e+26,8.86861e+24,8.24626e+11,0.187476,1.93061e+34,0.03468,0.0292861,0.00214855,1.20771e-44,1.19552e+17,2.23154e+17,1.12392e+13,3.42716e+17
4.03527e+06,1.1181e+06,1.45275e+07,3.08554e+26,9.56395e+24,8.45895e+11,0.187542,1.92742e+34,0.03468,0.0292861,0.00214855,1.20771e-44,1.19486e+17,2.23044e+17,1.12318e+13,3.42542e+17
4.13623e+06,1.11773e+06,1.4525e+07,3.32232e+26,1.02906e+25,8.67066e+11,0.187609,1.92417e+34,0.03468,0.0292861,0.00214855,1.20771e-44,1.1942e+17,2.22932e+17,1.12242e+13,3.42363e+17
4.23656e+06,1.11735e+06,1.45225e+07,3.56926e+26,1.10475e+25,8.88105e+11,0.187677,1.92087e+34,0.03468,0.0292861,0.00214855,1.20771e-44,1.19352e+17,2.22818e+17,1.12165e+13,3.42181e+17
4.33934e+06,1.11695e+06,1.45199e+07,3.83456e+26,1.18597e+25,9.09658e+11,0.187749,1.91742e+34,0.03468,0.0292861,0.00214855,1.20771e-44,1.19282e+17,2.22698e+17,1.12084e+13,3.41991e+17
4.4413e+06,1.11654e+06,1.45172e+07,4.11036e+26,1.27029e+25,9.31039e+11,0.187822,1.91391e+34,0.03468,0.0292861,0.00214855,1.20771e-44,1.1921e+17,2.22577e+17,1.12002e+13,3.41798e+17
4.54226e+06,1.11613e+06,1.45145e+07,4.39614e+26,1.35756e+25,9.52212e+11,0.187895,1.91037e+34,0.03468,0.0292861,0.00214855,1.20771e-44,1.19137e+17,2.22454e+17,1.11919e+13,3.41602e+17
4.64553e+06,1.11571e+06,1.45117e+07,4.70179e+26,1.45076e+25,9.73871e+11,0.187973,1.90667e+34,0.03468,0.0292861,0.00214855,1.20771e-44,1.19061e+17,2.22326e+17,1.11832e+13,3.41397e+17
4.74761e+06,1.11527e+06,1.45089e+07,5.01743e+26,1.54688e+25,9.9528e+11,0.188051,1.90294e+34,0.03468,0.0292861,0.00214855,1.20771e-44,1.18984e+17,2.22196e+17,1.11744e+13,3.41191e+17
4.84832e+06,1.11484e+06,1.4506e+07,5.34227e+26,1.64567e+25,1.0164e+12,0.188129,1.89919e+34,0.03468,0.0292861,0.00214855,1.20771e-44,1.18906e+17,2.22065e+17,1.11656e+13,3.40982e+17
4.95117e+06,1.11438e+06,1.4503e+07,5.68815e+26,1.75071e+25,1.03797e+12,0.188211,1.89528e+34,0.03468,0.0292861,0.00214855,1.20771e-44,1.18825e+17,2.21929e+17,1.11564e+13,3.40765e+17
5.05244e+06,1.11393e+06,1.45e+07,6.04287e+26,1.85828e+25,1.05921e+12,0.188294,1.89136e+34,0.03468,0.0292861,0.00214855,1.20771e-44,1.18744e+17,2.21792e+17,1.11472e+13,3.40548e+17
5.15579e+06,1.11345e+06,1.44969e+07,6.41971e+26,1.97239e+25,1.08089e+12,0.18838,1.88729e+34,0.03468,0.0292861,0.00214855,1.20771e-44,1.1866e+17,2.2165e+17,1.11375e+13,3.40321e+17
5.25733e+06,1.11298e+06,1.44938e+07,6.80479e+26,2.08881e+25,1.10219e+12,0.188466,1.88322e+34,0.03468,0.0292861,0.00214855,1.20771e-44,1.18575e+17,2.21507e+17,1.11279e+13,3.40094e+17
5.36089e+06,1.11248e+06,1.44905e+07,7.21296e+26,2.21203e+25,1.12391e+12,0.188556,1.87899e+34,0.03468,0.0292861,0.00214855,1.20771e-44,1.18488e+17,2.21359e+17,1.11179e+13,3.39857e+17
5.46241e+06,1.11199e+06,1.44872e+07,7.62851e+26,2.33728e+25,1.14521e+12,0.188646,1.87478e+34,0.03468,0.0292861,0.00214855,1.20771e-44,1.184e+17,2.21211e+17,1.11079e+13,3.39622e+17
5.56587e+06,1.11147e+06,1.44839e+07,8.068e+26,2.46953e+25,1.16691e+12,0.188739,1.87041e+34,0.03468,0.0292861,0.00214855,1.20771e-44,1.18309e+17,2.21057e+17,1.10975e+13,3.39377e+17
5.66705e+06,1.11096e+06,1.44805e+07,8.51371e+26,2.60344e+25,1.18814e+12,0.188832,1.86607e+34,0.03468,0.0292861,0.00214855,1.20771e-44,1.18218e+17,2.20904e+17,1.10872e+13,3.39134e+17
5.77009e+06,1.11043e+06,1.4477e+07,8.98405e+26,2.74451e+25,1.20975e+12,0.188928,1.86159e+34,0.03468,0.0292861,0.00214855,1.20771e-44,1.18125e+17,2.20746e+17,1.10765e+13,3.38881e+17
5.87062e+06,1.10991e+06,1.44735e+07,9.45915e+26,2.88678e+25,1.23084e+12,0.189024,1.85714e+34,0.03468,0.0292861,0.00214855,1.20771e-44,1.18031e+17,2.20588e+17,1.10659e+13,3.38631e+17
5.97292e+06,1.10937e+06,1.44699e+07,9.95937e+26,3.03631e+25,1.25231e+12,0.189123,1.85255e+34,0.03468,0.0292861,0.00214855,1.20771e-44,1.17935e+17,2.20426e+17,1.1055e+13,3.38372e+17
6.07702e+06,1.1088e+06,1.44662e+07,1.04861e+27,3.19348e+25,1.27415e+12,0.189225,1.84781e+34,0.03468,0.0292861,0.00214855,1.20771e-44,1.17835e+17,2.20258e+17,1.10436e+13,3.38104e+17
6.17831e+06,1.10825e+06,1.44626e+07,1.10159e+27,3.3513e+25,1.2954e+12,0.189327,1.84313e+34,0.03468,0.0292861,0.00214855,1.20771e-44,1.17737e+17,2.20091e+17,1.10324e+13,3.37839e+17
6.28131e+06,1.10767e+06,1.44588e+07,1.15725e+27,3.5168e+25,1.31701e+12,0.189432,1.83831e+34,0.03468,0.0292861,0.00214855,1.20771e-44,1.17635e+17,2.19919e+17,1.10209e+13,3.37565e+17
6.38605e+06,1.10708e+06,1.44548e+07,1.21572e+27,3.69034e+25,1.33899e+12,0.189541,1.83333e+34,0.03468,0.0292861,0.00214855,1.20771e-44,1.1753e+17,2.19742e+17,1.10089e+13,3.37283e+17
6.48768e+06,1.10649e+06,1.4451e+07,1.27429e+27,3.86385e+25,1.36032e+12,0.189648,1.82844e+34,0.03468,0.0292861,0.00214855,1.20771e-44,1.17426e+17,2.19567e+17,1.09971e+13,3.37004e+17
6.59095e+06,1.10589e+06,1.4447e+07,1.33567e+27,4.04537e+25,1.38199e+12,0.189759,1.8234e+34,0.03468,0.0292861,0.00214855,1.20771e-44,1.1732e+17,2.19386e+17,1.0985e+13,3.36717e+17
6.69589e+06,1.10527e+06,1.44429e+07,1.40002e+27,4.23526e+25,1.40401e+12,0.189874,1.81822e+34,0.03468,0.0292861,0.00214855,1.20771e-44,1.17209e+17,2.192e+17,1.09725e+13,3.36421e+17
6.79741e+06,1.10465e+06,1.44388e+07,1.46418e+27,4.42424e+25,1.42532e+12,0.189986,1.81314e+34,0.03468,0.0292861,0.00214855,1.20771e-44,1.17101e+17,2.19017e+17,1.09602e+13,3.3613e+17
6.90049e+06,1.10402e+06,1.44347e+07,1.53129e+27,4.62149e+25,1.44695e+12,0.190102,1.80792e+34,0.03468,0.0292861,0.00214855,1.20771e-44,1.1699e+17,2.18829e+17,1.09475e+13,3.3583e+17
7.00516e+06,1.10337e+06,1.44304e+07,1.60147e+27,4.82737e+25,1.46892e+12,0.190222,1.80255e+34,0.03468,0.0292861,0.00214855,1.20771e-44,1.16875e+17,2.18635e+17,1.09345e+13,3.35522e+17
7.10608e+06,1.10274e+06,1.44262e+07,1.67111e+27,5.03127e+25,1.4901e+12,0.190339,1.79731e+34,0.03468,0.0292861,0.00214855,1.20771e-44,1.16763e+17,2.18446e+17,1.09218e+13,3.3522e+17
7.20849e+06,1.10209e+06,1.44218e+07,1.74379e+27,5.2436e+25,1.5116e+12,0.19046,1.79194e+34,0.03468,0.0292861,0.00214855,1.20771e-44,1.16648e+17,2.18251e+17,1.09087e+13,3.3491e+17
7.3124e+06,1.10141e+06,1.44174e+07,1.81962e+27,5.4647e+25,1.53341e+12,0.190585,1.78643e+34,0.03468,0.0292861,0.00214855,1.20771e-44,1.16529e+17,2.18051e+17,1.08952e+13,3.34591e+17
7.41783e+06,1.10072e+06,1.44128e+07,1.89876e+27,5.69492e+25,1.55554e+12,0.190713,1.78077e+34,0.03468,0.0292861,0.00214855,1.20771e-44,1.16408e+17,2.17845e+17,1.08814e+13,3.34263e+17
7.51914e+06,1.10005e+06,1.44084e+07,1.9769e+27,5.92176e+25,1.57681e+12,0.190838,1.77528e+34,0.03468,0.0292861,0.00214855,1.20771e-44,1.16289e+17,2.17644e+17,1.0868e+13,3.33944e+17
7.62186e+06,1.09936e+06,1.44038e+07,2.05825e+27,6.15742e+25,1.59837e+12,0.190966,1.76965e+34,0.03468,0.0292861,0.00214855,1.20771e-44,1.16167e+17,2.17438e+17,1.08541e+13,3.33616e+17
7.72601e+06,1.09865e+06,1.43991e+07,2.14296e+27,6.40224e+25,1.62024e+12,0.191098,1.76388e+34,0.03468,0.0292861,0.00214855,1.20771e-44,1.16042e+17,2.17227e+17,1.084e+13,3.3328e+17
7.83161e+06,1.09792e+06,1.43942e+07,2.23115e+27,6.65656e+25,1.64241e+12,0.191234,1.75797e+34,0.03468,0.0292861,0.00214855,1.20771e-44,1.15914e+17,2.1701e+17,1.08254e+13,3.32934e+17
7.93269e+06,1.09721e+06,1.43895e+07,2.31777e+27,6.90578e+25,1.66363e+12,0.191366,1.75226e+34,0.03468,0.0292861,0.00214855,1.20771e-44,1.15789e+17,2.16799e+17,1.08113e+13,3.326e+17
8.03511e+06,1.09649e+06,1.43847e+07,2.40775e+27,7.16409e+25,1.68514e+12,0.191501,1.74642e+34,0.03468,0.0292861,0.00214855,1.20771e-44,1.15662e+17,2.16584e+17,1.07969e+13,3.32256e+17
8.13888e+06,1.09574e+06,1.43798e+07,2.50123e+27,7.4318e+25,1.70693e+12,0.19164,1.74045e+34,0.03468,0.0292861,0.00214855,1.20771e-44,1.15531e+17,2.16363e+17,1.07821e+13,3.31904e+17
8.24402e+06,1.09498e+06,1.43747e+07,2.59834e+27,7.70925e+25,1.729e+12,0.191783,1.73434e+34,0.03468,0.0292861,0.00214855,1.20771e-44,1.15397e+17,2.16136e+17,1.07669e+13,3.31544e+17
8.34424e+06,1.09424e+06,1.43699e+07,2.69318e+27,7.97956e+25,1.75005e+12,0.191921,1.72846e+34,0.03468,0.0292861,0.00214855,1.20771e-44,1.15268e+17,2.15917e+17,1.07523e+13,3.31196e+17
8.4457e+06,1.09349e+06,1.43649e+07,2.79147e+27,8.25908e+25,1.77136e+12,0.192062,1.72246e+34,0.03468,0.0292861,0.00214855,1.20771e-44,1.15136e+17,2.15693e+17,1.07373e+13,3.3084e+17
8.54843e+06,1.09272e+06,1.43597e+07,2.89336e+27,8.54811e+25,1.79294e+12,0.192207,1.71633e+34,0.03468,0.0292861,0.00214855,1.20771e-44,1.15e+17,2.15464e+17,1.0722e+13,3.30476e+17
8.65244e+06,1.09193e+06,1.43545e+07,2.99896e+27,8.84694e+25,1.81478e+12,0.192356,1.71007e+34,0.03468,0.0292861,0.00214855,1.20771e-44,1.14862e+17,2.1523e+17,1.07063e+13,3.30103e+17
8.75775e+06,1.09112e+06,1.43491e+07,3.10842e+27,9.1559e+25,1.8369e+12,0.192509,1.70368e+34,0.03468,0.0292861,0.00214855,1.20771e-44,1.1472e+17,2.1499e+17,1.06903e+13,3.29721e+17
8.86437e+06,1.09029e+06,1.43436e+07,3.22188e+27,9.4753e+25,1.8593e+12,0.192665,1.69716e+34,0.03468,0.0292861,0.00214855,1.20771e-44,1.14575e+17,2.14744e+17,1.06739e+13,3.2933e+17
8.96554e+06,1.0895e+06,1.43383e+07,3.332e+27,9.78453e+25,1.88055e+12,0.192816,1.69092e+34,0.03468,0.0292861,0.00214855,1.20771e-44,1.14436e+17,2.14509e+17,1.06581e+13,3.28955e+17
9.06789e+06,1.08869e+06,1.43329e+07,3.44588e+27,1.01035e+26,1.90205e+12,0.192969,1.68456e+34,0.03468,0.0292861,0.00214855,1.20771e-44,1.14294e+17,2.14268e+17,1.06421e+13,3.28572e+17
9.17144e+06,1.08786e+06,1.43274e+07,3.56366e+27,1.04325e+26,1.92381e+12,0.193127,1.67808e+34,0.03468,0.0292861,0.00214855,1.20771e-44,1.14148e+17,2.14022e+17,1.06257e+13,3.28181e+17
9.2762e+06,1.08701e+06,1.43217e+07,3.68546e+27,1.07719e+26,1.94582e+12,0.193289,1.67147e+34,0.03468,0.0292861,0.00214855,1.20771e-44,1.14e+17,2.1377e+17,1.06089e+13,3.27781e+17
9.3822e+06,1.08614e+06,1.43159e+07,3.81143e+27,1.11219e+26,1.96809e+12,0.193454,1.66474e+34,0.03468,0.0292861,0.00214855,1.20771e-44,1.13848e+17,2.13513e+17,1.05917e+13,3.27372e+17
9.48225e+06,1.08531e+06,1.43104e+07,3.93288e+27,1.14585e+26,1.98911e+12,0.193612,1.65834e+34,0.03468,0.0292861,0.00214855,1.20771e-44,1.13704e+17,2.13268e+17,1.05754e+13,3.26982e+17
9.58341e+06,1.08446e+06,1.43048e+07,4.0582e+27,1.18048e+26,2.01037e+12,0.193773,1.65182e+34,0.03468,0.0292861,0.00214855,1.20771e-44,1.13556e+17,2.13018e+17,1.05588e+13,3.26584e+17
9.68567e+06,1.0836e+06,1.4299e+07,4.18751e+27,1.21613e+26,2.03186e+12,0.193938,1.64519e+34,0.03468,0.0292861,0.00214855,1.20771e-44,1.13405e+17,2.12763e+17,1.05418e+13,3.26179e+17
9.78906e+06,1.08272e+06,1.42931e+07,4.32094e+27,1.25281e+26,2.05359e+12,0.194107,1.63845e+34,0.03468,0.0292861,0.00214855,1.20771e-44,1.13252e+17,2.12502e+17,1.05244e+13,3.25764e+17
9.89359e+06,1.08182e+06,1.42871e+07,4.45863e+27,1.29054e+26,2.07555e+12,0.19428,1.63158e+34,0.03468,0.0292861,0.00214855,1.20771e-44,1.13095e+17,2.12236e+17,1.05068e+13,3.25342e+17
9.99927e+06,1.0809e+06,1.4281e+07,4.6007e+27,1.32937e+26,2.09777e+12,0.194457,1.6246e+34,0.03468,0.0292861,0.00214855,1.20771e-44,1.12935e+17,2.11965e+17,1.04887e+13,3.2491e+17
1.01061e+07,1.07996e+06,1.42747e+07,4.7473e+27,1.36932e+26,2.12023e+12,0.194637,1.61749e+34,0.03468,0.0292861,0.00214855,1.20771e-44,1.12771e+17,2.11688e+17,1.04703e+13,3.2447e+17
1.02064e+07,1.07907e+06,1.42688e+07,4.88761e+27,1.40745e+26,2.1413e+12,0.194809,1.61078e+34,0.03468,0.0292861,0.00214855,1.20771e-44,1.12617e+17,2.11426e+17,1.04529e+13,3.24053e+17
1.03077e+07,1.07817e+06,1.42627e+07,5.03207e+27,1.44659e+26,2.1626e+12,0.194984,1.60396e+34,0.03468,0.0292861,0.00214855,1.20771e-44,1.12459e+17,2.11159e+17,1.04352e+13,3.23629e+17
1.041e+07,1.07724e+06,1.42565e+07,5.18079e+27,1.48677e+26,2.18411e+12,0.195162,1.59704e+34,0.03468,0.0292861,0.00214855,1.20771e-44,1.12299e+17,2.10887e+17,1.04171e+13,3.23196e+17
1.05134e+07,1.0763e+06,1.42502e+07,5.33391e+27,1.52801e+26,2.20585e+12,0.195345,1.59e+34,0.03468,0.0292861,0.00214855,1.20771e-44,1.12135e+17,2.10609e+17,1.03987e+13,3.22755e+17
1.06179e+07,1.07534e+06,1.42438e+07,5.49156e+27,1.57035e+26,2.22781e+12,0.195531,1.58286e+34,0.03468,0.0292861,0.00214855,1.20771e-44,1.11969e+17,2.10327e+17,1.038e+13,3.22306e+17
1.07234e+07,1.07437e+06,1.42373e+07,5.65387e+27,1.6138e+26,2.25e+12,0.195722,1.5756e+34,0.03468,0.0292861,0.00214855,1.20771e-44,1.11799e+17,2.10039e+17,1.03609e+13,3.21848e+17
1.083e+07,1.07337e+06,1.42306e+07,5.82097e+27,1.6584e+26,2.27243e+12,0.195916,1.56823e+34,0.03468,0.0292861,0.00214855,1.20771e-44,1.11626e+17,2.09745e+17,1.03414e+13,3.21382e+17
1.09378e+07,1.07235e+06,1.42238e+07,5.99301e+27,1.70417e+26,2.29508e+12,0.196115,1.56074e+34,0.03468,0.0292861,0.00214855,1.20771e-44,1.1145e+17,2.09446e+17,1.03217e+13,3.20907e+17
1.10382e+07,1.0714e+06,1.42174e+07,6.15633e+27,1.74749e+26,2.3162e+12,0.196302,1.55373e+34,0.03468,0.0292861,0.00214855,1.20771e-44,1.11285e+17,2.09165e+17,1.03031e+13,3.2046e+17
1.11396e+07,1.07042e+06,1.42108e+07,6.3241e+27,1.79185e+26,2.33752e+12,0.196493,1.54662e+34,0.03468,0.0292861,0.00214855,1.20771e-44,1.11116e+17,2.08879e+17,1.02842e+13,3.20006e+17
