X = 0.734
Y = 0.25
Z = 0.016
mu = 0.601142
Radius,Density,Temp,Mass,Lum,OptD,Kff,KH,Kes,PP,CNO,3a,Deg,Gas,Rad,TotPres
0,0,0,0,0,0,-nan,0,0.03468,0.0605772,0.0456679,1.00964e-41,0,0,0,0
1,1.29551e+06,1.68761e+07,5.42664e+06,576554,159413,0.12305,7.99293e+34,0.03468,0.0605772,0.0456679,1.00964e-41,1.52729e+17,3.00217e+17,2.04541e+13,4.52967e+17
100026,1.29551e+06,1.68761e+07,5.4309e+21,5.76997e+20,1.59454e+10,0.12305,7.99277e+34,0.03468,0.0605772,0.0456679,1.00964e-41,1.52728e+17,3.00215e+17,2.0454e+13,4.52964e+17
200036,1.29549e+06,1.6876e+07,4.3436e+22,4.61457e+21,3.18883e+10,0.123052,7.99227e+34,0.03468,0.0605772,0.0456679,1.00964e-41,1.52725e+17,3.0021e+17,2.04535e+13,4.52955e+17
300075,1.29547e+06,1.68758e+07,1.46625e+23,1.5576e+22,4.78357e+10,0.123055,7.99144e+34,0.03468,0.0605772,0.0456679,1.00964e-41,1.5272e+17,3.002e+17,2.04526e+13,4.52941e+17
400340,1.29543e+06,1.68756e+07,3.48178e+23,3.69828e+22,6.38194e+10,0.123058,7.99028e+34,0.03468,0.0605772,0.0456679,1.00964e-41,1.52712e+17,3.00187e+17,2.04514e+13,4.5292e+17
500509,1.29538e+06,1.68753e+07,6.80361e+23,7.22562e+22,7.97876e+10,0.123063,7.98879e+34,0.03468,0.0605772,0.0456679,1.00964e-41,1.52703e+17,3.00171e+17,2.04499e+13,4.52894e+17
600560,1.29532e+06,1.68749e+07,1.17533e+24,1.24801e+23,9.57371e+10,0.123069,7.98697e+34,0.03468,0.0605772,0.0456679,1.00964e-41,1.52691e+17,3.0015e+17,2.0448e+13,4.52862e+17
700971,1.29525e+06,1.68744e+07,1.86887e+24,1.98403e+23,1.11744e+11,0.123076,7.98481e+34,0.03468,0.0605772,0.0456679,1.00964e-41,1.52678e+17,3.00126e+17,2.04458e+13,4.52824e+17
801242,1.29517e+06,1.68739e+07,2.79095e+24,2.96222e+23,1.27729e+11,0.123084,7.98232e+34,0.03468,0.0605772,0.0456679,1.00964e-41,1.52662e+17,3.00098e+17,2.04433e+13,4.5278e+17
901605,1.29508e+06,1.68733e+07,3.97642e+24,4.21929e+23,1.43728e+11,0.123093,7.97949e+34,0.03468,0.0605772,0.0456679,1.00964e-41,1.52644e+17,3.00066e+17,2.04404e+13,4.52731e+17
1.00174e+06,1.29498e+06,1.68726e+07,5.45369e+24,5.78503e+23,1.59692e+11,0.123104,7.97635e+34,0.03468,0.0605772,0.0456679,1.00964e-41,1.52624e+17,3.00031e+17,2.04371e+13,4.52675e+17
1.10225e+06,1.29487e+06,1.68719e+07,7.26506e+24,7.70385e+23,1.75714e+11,0.123115,7.97286e+34,0.03468,0.0605772,0.0456679,1.00964e-41,1.52602e+17,2.99991e+17,2.04336e+13,4.52614e+17
1.20292e+06,1.29474e+06,1.68711e+07,9.44245e+24,1.00091e+24,1.91763e+11,0.123127,7.96903e+34,0.03468,0.0605772,0.0456679,1.00964e-41,1.52578e+17,2.99948e+17,2.04296e+13,4.52546e+17
1.30302e+06,1.29461e+06,1.68702e+07,1.20005e+25,1.27155e+24,2.0772e+11,0.123141,7.96489e+34,0.03468,0.0605772,0.0456679,1.00964e-41,1.52551e+17,2.99902e+17,2.04254e+13,4.52473e+17
1.40304e+06,1.29446e+06,1.68692e+07,1.49806e+25,1.58664e+24,2.23666e+11,0.123156,7.96043e+34,0.03468,0.0605772,0.0456679,1.00964e-41,1.52523e+17,2.99852e+17,2.04208e+13,4.52395e+17
1.50399e+06,1.29431e+06,1.68682e+07,1.84511e+25,1.9533e+24,2.3976e+11,0.123171,7.95559e+34,0.03468,0.0605772,0.0456679,1.00964e-41,1.52492e+17,2.99797e+17,2.04158e+13,4.5231e+17
1.605e+06,1.29414e+06,1.68671e+07,2.24221e+25,2.3725e+24,2.55862e+11,0.123188,7.95042e+34,0.03468,0.0605772,0.0456679,1.00964e-41,1.52459e+17,2.99739e+17,2.04105e+13,4.52219e+17
1.70513e+06,1.29396e+06,1.6866e+07,2.6884e+25,2.84311e+24,2.71826e+11,0.123206,7.94497e+34,0.03468,0.0605772,0.0456679,1.00964e-41,1.52425e+17,2.99677e+17,2.04049e+13,4.52122e+17
1.80612e+06,1.29377e+06,1.68647e+07,3.1946e+25,3.37654e+24,2.87925e+11,0.123225,7.93914e+34,0.03468,0.0605772,0.0456679,1.00964e-41,1.52388e+17,2.99612e+17,2.03989e+13,4.5202e+17
1.90738e+06,1.29357e+06,1.68634e+07,3.76226e+25,3.97416e+24,3.04069e+11,0.123245,7.93296e+34,0.03468,0.0605772,0.0456679,1.00964e-41,1.52348e+17,2.99542e+17,2.03926e+13,4.5191e+17
2.00831e+06,1.29336e+06,1.6862e+07,4.39125e+25,4.63567e+24,3.2016e+11,0.123267,7.92648e+34,0.03468,0.0605772,0.0456679,1.00964e-41,1.52307e+17,2.99469e+17,2.03859e+13,4.51796e+17
2.10985e+06,1.29314e+06,1.68606e+07,5.09107e+25,5.37087e+24,3.36349e+11,0.123289,7.91962e+34,0.03468,0.0605772,0.0456679,1.00964e-41,1.52263e+17,2.99391e+17,2.03788e+13,4.51675e+17
2.20992e+06,1.29291e+06,1.68591e+07,5.84975e+25,6.16702e+24,3.52304e+11,0.123312,7.91253e+34,0.03468,0.0605772,0.0456679,1.00964e-41,1.52218e+17,2.99311e+17,2.03715e+13,4.51549e+17
2.31129e+06,1.29267e+06,1.68575e+07,6.69144e+25,7.04924e+24,3.68465e+11,0.123337,7.90503e+34,0.03468,0.0605772,0.0456679,1.00964e-41,1.5217e+17,2.99226e+17,2.03638e+13,4.51417e+17
2.4119e+06,1.29241e+06,1.68558e+07,7.60296e+25,8.00348e+24,3.84505e+11,0.123363,7.89726e+34,0.03468,0.0605772,0.0456679,1.00964e-41,1.52121e+17,2.99138e+17,2.03558e+13,4.51279e+17
2.51313e+06,1.29215e+06,1.68541e+07,8.60003e+25,9.04593e+24,4.00646e+11,0.12339,7.88911e+34,0.03468,0.0605772,0.0456679,1.00964e-41,1.52068e+17,2.99046e+17,2.03474e+13,4.51135e+17
2.61472e+06,1.29187e+06,1.68522e+07,9.68436e+25,1.01781e+25,4.16842e+11,0.123418,7.88061e+34,0.03468,0.0605772,0.0456679,1.00964e-41,1.52014e+17,2.98949e+17,2.03386e+13,4.50984e+17
2.71635e+06,1.29158e+06,1.68504e+07,1.08566e+26,1.14004e+25,4.33047e+11,0.123447,7.87178e+34,0.03468,0.0605772,0.0456679,1.00964e-41,1.51958e+17,2.98849e+17,2.03295e+13,4.50827e+17
2.81772e+06,1.29128e+06,1.68484e+07,1.21164e+26,1.2712e+25,4.4921e+11,0.123477,7.86264e+34,0.03468,0.0605772,0.0456679,1.00964e-41,1.51899e+17,2.98745e+17,2.032e+13,4.50665e+17
2.91853e+06,1.29098e+06,1.68464e+07,1.34619e+26,1.41107e+25,4.65283e+11,0.123508,7.85324e+34,0.03468,0.0605772,0.0456679,1.00964e-41,1.51839e+17,2.98639e+17,2.03103e+13,4.50498e+17
3.02068e+06,1.29065e+06,1.68443e+07,1.49234e+26,1.56276e+25,4.81571e+11,0.123541,7.84338e+34,0.03468,0.0605772,0.0456679,1.00964e-41,1.51776e+17,2.98526e+17,2.03001e+13,4.50322e+17
3.12175e+06,1.29033e+06,1.68421e+07,1.64695e+26,1.72299e+25,4.97687e+11,0.123574,7.83331e+34,0.03468,0.0605772,0.0456679,1.00964e-41,1.51711e+17,2.98412e+17,2.02897e+13,4.50143e+17
3.2238e+06,1.28998e+06,1.68398e+07,1.81352e+26,1.89531e+25,5.13959e+11,0.123609,7.82282e+34,0.03468,0.0605772,0.0456679,1.00964e-41,1.51644e+17,2.98292e+17,2.02788e+13,4.49956e+17
3.32422e+06,1.28963e+06,1.68375e+07,1.988e+26,2.07551e+25,5.29972e+11,0.123645,7.81218e+34,0.03468,0.0605772,0.0456679,1.00964e-41,1.51575e+17,2.98171e+17,2.02677e+13,4.49766e+17
3.42522e+06,1.28927e+06,1.68352e+07,2.17439e+26,2.26767e+25,5.46077e+11,0.123682,7.80116e+34,0.03468,0.0605772,0.0456679,1.00964e-41,1.51504e+17,2.98045e+17,2.02563e+13,4.49569e+17
3.52666e+06,1.2889e+06,1.68327e+07,2.37294e+26,2.47199e+25,5.62252e+11,0.12372,7.78978e+34,0.03468,0.0605772,0.0456679,1.00964e-41,1.51431e+17,2.97915e+17,2.02445e+13,4.49366e+17
3.62839e+06,1.28851e+06,1.68302e+07,2.58382e+26,2.6886e+25,5.78475e+11,0.123759,7.77806e+34,0.03468,0.0605772,0.0456679,1.00964e-41,1.51355e+17,2.97781e+17,2.02323e+13,4.49156e+17
3.73029e+06,1.28811e+06,1.68276e+07,2.80714e+26,2.91754e+25,5.94723e+11,0.1238,7.766e+34,0.03468,0.0605772,0.0456679,1.00964e-41,1.51277e+17,2.97643e+17,2.02197e+13,4.4894e+17
3.83218e+06,1.2877e+06,1.68249e+07,3.04294e+26,3.1588e+25,6.10972e+11,0.123841,7.75362e+34,0.03468,0.0605772,0.0456679,1.00964e-41,1.51197e+17,2.97501e+17,2.02068e+13,4.48718e+17
3.93393e+06,1.28728e+06,1.68221e+07,3.29117e+26,3.41225e+25,6.27198e+11,0.123884,7.74095e+34,0.03468,0.0605772,0.0456679,1.00964e-41,1.51115e+17,2.97355e+17,2.01936e+13,4.48491e+17
4.03537e+06,1.28686e+06,1.68193e+07,3.55168e+26,3.67769e+25,6.43375e+11,0.123928,7.72801e+34,0.03468,0.0605772,0.0456679,1.00964e-41,1.51032e+17,2.97207e+17,2.01801e+13,4.48258e+17
4.13634e+06,1.28642e+06,1.68164e+07,3.82423e+26,3.9548e+25,6.59478e+11,0.123972,7.71482e+34,0.03468,0.0605772,0.0456679,1.00964e-41,1.50946e+17,2.97055e+17,2.01663e+13,4.48021e+17
4.23668e+06,1.28597e+06,1.68135e+07,4.10848e+26,4.24318e+25,6.7548e+11,0.124018,7.70142e+34,0.03468,0.0605772,0.0456679,1.00964e-41,1.50859e+17,2.969e+17,2.01522e+13,4.4778e+17
4.33946e+06,1.28551e+06,1.68104e+07,4.41386e+26,4.5523e+25,6.91873e+11,0.124066,7.68739e+34,0.03468,0.0605772,0.0456679,1.00964e-41,1.50768e+17,2.96738e+17,2.01375e+13,4.47526e+17
4.44143e+06,1.28503e+06,1.68073e+07,4.73132e+26,4.87292e+25,7.08135e+11,0.124114,7.67315e+34,0.03468,0.0605772,0.0456679,1.00964e-41,1.50675e+17,2.96574e+17,2.01226e+13,4.47269e+17
4.5424e+06,1.28455e+06,1.68042e+07,5.06027e+26,5.20435e+25,7.2424e+11,0.124163,7.65876e+34,0.03468,0.0605772,0.0456679,1.00964e-41,1.50581e+17,2.96408e+17,2.01075e+13,4.47009e+17
4.64568e+06,1.28405e+06,1.68009e+07,5.41209e+26,5.55797e+25,7.40713e+11,0.124215,7.64374e+34,0.03468,0.0605772,0.0456679,1.00964e-41,1.50483e+17,2.96234e+17,2.00917e+13,4.46737e+17
4.74777e+06,1.28354e+06,1.67975e+07,5.77542e+26,5.92226e+25,7.56996e+11,0.124267,7.62858e+34,0.03468,0.0605772,0.0456679,1.00964e-41,1.50384e+17,2.96058e+17,2.00757e+13,4.46462e+17
4.84849e+06,1.28303e+06,1.67942e+07,6.14934e+26,6.29623e+25,7.7306e+11,0.124319,7.61334e+34,0.03468,0.0605772,0.0456679,1.00964e-41,1.50285e+17,2.95881e+17,2.00597e+13,4.46186e+17
4.95135e+06,1.2825e+06,1.67907e+07,6.54747e+26,6.6934e+25,7.89469e+11,0.124374,7.59748e+34,0.03468,0.0605772,0.0456679,1.00964e-41,1.50181e+17,2.95696e+17,2.00429e+13,4.45897e+17
5.05263e+06,1.28197e+06,1.67871e+07,6.95578e+26,7.09965e+25,8.05623e+11,0.124429,7.58156e+34,0.03468,0.0605772,0.0456679,1.00964e-41,1.50076e+17,2.95511e+17,2.00261e+13,4.45607e+17
5.156e+06,1.28141e+06,1.67835e+07,7.38955e+26,7.53008e+25,8.22112e+11,0.124486,7.56503e+34,0.03468,0.0605772,0.0456679,1.00964e-41,1.49968e+17,2.95318e+17,2.00086e+13,4.45306e+17
5.25755e+06,1.28085e+06,1.67798e+07,7.8328e+26,7.96872e+25,8.38312e+11,0.124544,7.54849e+34,0.03468,0.0605772,0.0456679,1.00964e-41,1.49859e+17,2.95125e+17,1.99911e+13,4.45004e+17
5.36112e+06,1.28027e+06,1.6776e+07,8.30264e+26,8.43239e+25,8.54834e+11,0.124603,7.53133e+34,0.03468,0.0605772,0.0456679,1.00964e-41,1.49746e+17,2.94924e+17,1.99729e+13,4.4469e+17
5.46265e+06,1.27969e+06,1.67722e+07,8.78096e+26,8.90308e+25,8.71031e+11,0.124663,7.51423e+34,0.03468,0.0605772,0.0456679,1.00964e-41,1.49633e+17,2.94724e+17,1.99548e+13,4.44377e+17
5.56613e+06,1.27909e+06,1.67682e+07,9.28685e+26,9.39947e+25,8.87538e+11,0.124725,7.4965e+34,0.03468,0.0605772,0.0456679,1.00964e-41,1.49516e+17,2.94516e+17,1.99359e+13,4.44051e+17
5.66733e+06,1.27849e+06,1.67643e+07,9.79989e+26,9.90141e+25,9.03683e+11,0.124787,7.47889e+34,0.03468,0.0605772,0.0456679,1.00964e-41,1.49399e+17,2.94309e+17,1.99171e+13,4.43728e+17
5.77038e+06,1.27787e+06,1.67602e+07,1.03413e+27,1.04295e+26,9.20125e+11,0.124851,7.46067e+34,0.03468,0.0605772,0.0456679,1.00964e-41,1.49278e+17,2.94094e+17,1.98977e+13,4.43392e+17
5.87092e+06,1.27726e+06,1.67561e+07,1.08882e+27,1.09613e+26,9.36166e+11,0.124915,7.44263e+34,0.03468,0.0605772,0.0456679,1.00964e-41,1.49159e+17,2.93881e+17,1.98784e+13,4.4306e+17
5.97324e+06,1.27662e+06,1.67519e+07,1.1464e+27,1.15196e+26,9.5249e+11,0.124981,7.42399e+34,0.03468,0.0605772,0.0456679,1.00964e-41,1.49035e+17,2.93661e+17,1.98585e+13,4.42715e+17
6.07735e+06,1.27596e+06,1.67476e+07,1.20702e+27,1.21055e+26,9.69102e+11,0.12505,7.40475e+34,0.03468,0.0605772,0.0456679,1.00964e-41,1.48906e+17,2.93433e+17,1.98379e+13,4.42359e+17
6.17866e+06,1.27531e+06,1.67432e+07,1.26801e+27,1.26931e+26,9.85267e+11,0.125117,7.38575e+34,0.03468,0.0605772,0.0456679,1.00964e-41,1.4878e+17,2.93208e+17,1.98175e+13,4.42007e+17
6.28168e+06,1.27463e+06,1.67388e+07,1.33207e+27,1.33083e+26,1.00171e+12,0.125187,7.36616e+34,0.03468,0.0605772,0.0456679,1.00964e-41,1.48649e+17,2.92975e+17,1.97964e+13,4.41643e+17
6.38644e+06,1.27394e+06,1.67342e+07,1.39938e+27,1.39525e+26,1.01842e+12,0.12526,7.34596e+34,0.03468,0.0605772,0.0456679,1.00964e-41,1.48513e+17,2.92734e+17,1.97747e+13,4.41267e+17
6.48809e+06,1.27325e+06,1.67297e+07,1.46679e+27,1.45956e+26,1.03464e+12,0.125331,7.3261e+34,0.03468,0.0605772,0.0456679,1.00964e-41,1.4838e+17,2.92497e+17,1.97533e+13,4.40897e+17
6.59138e+06,1.27254e+06,1.6725e+07,1.53746e+27,1.52674e+26,1.05113e+12,0.125405,7.30566e+34,0.03468,0.0605772,0.0456679,1.00964e-41,1.48243e+17,2.92253e+17,1.97312e+13,4.40515e+17
6.69634e+06,1.27181e+06,1.67202e+07,1.61153e+27,1.59691e+26,1.06788e+12,0.125482,7.28461e+34,0.03468,0.0605772,0.0456679,1.00964e-41,1.48101e+17,2.92001e+17,1.97084e+13,4.40121e+17
6.79788e+06,1.2711e+06,1.67154e+07,1.68538e+27,1.66663e+26,1.08408e+12,0.125557,7.26399e+34,0.03468,0.0605772,0.0456679,1.00964e-41,1.47962e+17,2.91754e+17,1.96861e+13,4.39735e+17
6.90098e+06,1.27036e+06,1.67105e+07,1.76262e+27,1.73929e+26,1.10054e+12,0.125634,7.2428e+34,0.03468,0.0605772,0.0456679,1.00964e-41,1.47818e+17,2.91499e+17,1.96631e+13,4.39337e+17
7.00567e+06,1.2696e+06,1.67055e+07,1.8434e+27,1.81501e+26,1.11725e+12,0.125714,7.22102e+34,0.03468,0.0605772,0.0456679,1.00964e-41,1.47671e+17,2.91236e+17,1.96394e+13,4.38927e+17
7.10662e+06,1.26885e+06,1.67006e+07,1.92357e+27,1.88988e+26,1.13336e+12,0.125792,7.19977e+34,0.03468,0.0605772,0.0456679,1.00964e-41,1.47526e+17,2.9098e+17,1.96163e+13,4.38526e+17
7.20905e+06,1.26809e+06,1.66955e+07,2.00722e+27,1.96772e+26,1.14971e+12,0.125873,7.17797e+34,0.03468,0.0605772,0.0456679,1.00964e-41,1.47378e+17,2.90716e+17,1.95925e+13,4.38114e+17
7.31298e+06,1.2673e+06,1.66903e+07,2.09452e+27,2.04865e+26,1.1663e+12,0.125955,7.15559e+34,0.03468,0.0605772,0.0456679,1.00964e-41,1.47225e+17,2.90445e+17,1.9568e+13,4.3769e+17
7.41844e+06,1.26649e+06,1.66849e+07,2.1856e+27,2.13277e+26,1.18313e+12,0.126041,7.13264e+34,0.03468,0.0605772,0.0456679,1.00964e-41,1.47069e+17,2.90166e+17,1.95428e+13,4.37254e+17
7.51978e+06,1.2657e+06,1.66797e+07,2.27555e+27,2.21551e+26,1.19931e+12,0.126124,7.11034e+34,0.03468,0.0605772,0.0456679,1.00964e-41,1.46916e+17,2.89894e+17,1.95184e+13,4.3683e+17
7.62252e+06,1.26489e+06,1.66743e+07,2.3692e+27,2.30133e+26,1.21571e+12,0.12621,7.0875e+34,0.03468,0.0605772,0.0456679,1.00964e-41,1.46759e+17,2.89615e+17,1.94933e+13,4.36394e+17
7.7267e+06,1.26406e+06,1.66688e+07,2.4667e+27,2.39033e+26,1.23234e+12,0.126298,7.0641e+34,0.03468,0.0605772,0.0456679,1.00964e-41,1.46598e+17,2.89329e+17,1.94675e+13,4.35947e+17
7.83233e+06,1.2632e+06,1.66632e+07,2.56821e+27,2.48262e+26,1.2492e+12,0.126388,7.04013e+34,0.03468,0.0605772,0.0456679,1.00964e-41,1.46433e+17,2.89035e+17,1.9441e+13,4.35488e+17
7.93344e+06,1.26237e+06,1.66577e+07,2.66792e+27,2.5729e+26,1.26535e+12,0.126476,7.01696e+34,0.03468,0.0605772,0.0456679,1.00964e-41,1.46273e+17,2.8875e+17,1.94154e+13,4.35043e+17
8.03589e+06,1.26152e+06,1.6652e+07,2.7715e+27,2.6663e+26,1.2817e+12,0.126566,6.99326e+34,0.03468,0.0605772,0.0456679,1.00964e-41,1.46109e+17,2.88458e+17,1.93891e+13,4.34586e+17
8.13969e+06,1.26065e+06,1.66462e+07,2.8791e+27,2.76294e+26,1.29828e+12,0.126659,6.96902e+34,0.03468,0.0605772,0.0456679,1.00964e-41,1.45941e+17,2.88159e+17,1.93622e+13,4.34119e+17
8.24486e+06,1.25976e+06,1.66403e+07,2.99088e+27,2.86291e+26,1.31507e+12,0.126754,6.94423e+34,0.03468,0.0605772,0.0456679,1.00964e-41,1.45768e+17,2.87852e+17,1.93346e+13,4.33639e+17
8.34511e+06,1.2589e+06,1.66346e+07,3.10004e+27,2.96013e+26,1.33108e+12,0.126846,6.92039e+34,0.03468,0.0605772,0.0456679,1.00964e-41,1.45602e+17,2.87556e+17,1.9308e+13,4.33177e+17
8.44661e+06,1.25801e+06,1.66287e+07,3.21319e+27,3.06047e+26,1.34729e+12,0.126941,6.89604e+34,0.03468,0.0605772,0.0456679,1.00964e-41,1.45432e+17,2.87253e+17,1.92808e+13,4.32704e+17
8.54937e+06,1.25711e+06,1.66227e+07,3.33046e+27,3.16404e+26,1.3637e+12,0.127037,6.87118e+34,0.03468,0.0605772,0.0456679,1.00964e-41,1.45258e+17,2.86943e+17,1.92529e+13,4.3222e+17
8.65342e+06,1.25618e+06,1.66165e+07,3.45202e+27,3.27093e+26,1.38032e+12,0.127136,6.8458e+34,0.03468,0.0605772,0.0456679,1.00964e-41,1.4508e+17,2.86625e+17,1.92244e+13,4.31724e+17
8.75876e+06,1.25524e+06,1.66102e+07,3.57802e+27,3.38122e+26,1.39714e+12,0.127238,6.81988e+34,0.03468,0.0605772,0.0456679,1.00964e-41,1.44897e+17,2.863e+17,1.91953e+13,4.31217e+17
8.86542e+06,1.25426e+06,1.66038e+07,3.70861e+27,3.49502e+26,1.41417e+12,0.127342,6.79343e+34,0.03468,0.0605772,0.0456679,1.00964e-41,1.44711e+17,2.85968e+17,1.91654e+13,4.30697e+17
8.96662e+06,1.25333e+06,1.65976e+07,3.83537e+27,3.60498e+26,1.43034e+12,0.127443,6.76813e+34,0.03468,0.0605772,0.0456679,1.00964e-41,1.44532e+17,2.85649e+17,1.91368e+13,4.30199e+17
9.06901e+06,1.25238e+06,1.65913e+07,3.96646e+27,3.71818e+26,1.44669e+12,0.127545,6.74234e+34,0.03468,0.0605772,0.0456679,1.00964e-41,1.44349e+17,2.85323e+17,1.91076e+13,4.2969e+17
9.1726e+06,1.25141e+06,1.65848e+07,4.10203e+27,3.83473e+26,1.46324e+12,0.12765,6.71605e+34,0.03468,0.0605772,0.0456679,1.00964e-41,1.44162e+17,2.84989e+17,1.90778e+13,4.2917e+17
9.2774e+06,1.25041e+06,1.65781e+07,4.24223e+27,3.9547e+26,1.47998e+12,0.127758,6.68926e+34,0.03468,0.0605772,0.0456679,1.00964e-41,1.43971e+17,2.84649e+17,1.90473e+13,4.28639e+17
9.38344e+06,1.24939e+06,1.65714e+07,4.38723e+27,4.07819e+26,1.49692e+12,0.127868,6.66195e+34,0.03468,0.0605772,0.0456679,1.00964e-41,1.43775e+17,2.84301e+17,1.90161e+13,4.28095e+17
9.48354e+06,1.24842e+06,1.65649e+07,4.52703e+27,4.19668e+26,1.51291e+12,0.127974,6.63599e+34,0.03468,0.0605772,0.0456679,1.00964e-41,1.43589e+17,2.83969e+17,1.89864e+13,4.27577e+17
9.58473e+06,1.24743e+06,1.65583e+07,4.67128e+27,4.31839e+26,1.52908e+12,0.128081,6.60958e+34,0.03468,0.0605772,0.0456679,1.00964e-41,1.43399e+17,2.8363e+17,1.89562e+13,4.27049e+17
9.68704e+06,1.24642e+06,1.65515e+07,4.82013e+27,4.44339e+26,1.54543e+12,0.128191,6.58269e+34,0.03468,0.0605772,0.0456679,1.00964e-41,1.43206e+17,2.83285e+17,1.89253e+13,4.26509e+17
9.79047e+06,1.24539e+06,1.65446e+07,4.97372e+27,4.57176e+26,1.56196e+12,0.128304,6.55534e+34,0.03468,0.0605772,0.0456679,1.00964e-41,1.43008e+17,2.82932e+17,1.88937e+13,4.25959e+17
9.89505e+06,1.24433e+06,1.65376e+07,5.13221e+27,4.70356e+26,1.57867e+12,0.128419,6.5275e+34,0.03468,0.0605772,0.0456679,1.00964e-41,1.42806e+17,2.82572e+17,1.88616e+13,4.25397e+17
1.00008e+07,1.24326e+06,1.65304e+07,5.29574e+27,4.83889e+26,1.59556e+12,0.128537,6.49919e+34,0.03468,0.0605772,0.0456679,1.00964e-41,1.426e+17,2.82205e+17,1.88288e+13,4.24824e+17
1.01077e+07,1.24216e+06,1.6523e+07,5.46449e+27,4.97783e+26,1.61264e+12,0.128657,6.47038e+34,0.03468,0.0605772,0.0456679,1.00964e-41,1.4239e+17,2.8183e+17,1.87954e+13,4.24239e+17
1.0208e+07,1.24112e+06,1.65161e+07,5.626e+27,5.11013e+26,1.62868e+12,0.128772,6.44318e+34,0.03468,0.0605772,0.0456679,1.00964e-41,1.42191e+17,2.81475e+17,1.87637e+13,4.23685e+17
1.03093e+07,1.24006e+06,1.6509e+07,5.79228e+27,5.24568e+26,1.64487e+12,0.128888,6.41555e+34,0.03468,0.0605772,0.0456679,1.00964e-41,1.41989e+17,2.81114e+17,1.87315e+13,4.23121e+17
1.04117e+07,1.23897e+06,1.65017e+07,5.96347e+27,5.38454e+26,1.66124e+12,0.129007,6.38748e+34,0.03468,0.0605772,0.0456679,1.00964e-41,1.41782e+17,2.80745e+17,1.86986e+13,4.22546e+17
1.05152e+07,1.23787e+06,1.64944e+07,6.13972e+27,5.52678e+26,1.67777e+12,0.129129,6.35897e+34,0.03468,0.0605772,0.0456679,1.00964e-41,1.41572e+17,2.8037e+17,1.86652e+13,4.2196e+17
1.06197e+07,1.23675e+06,1.64868e+07,6.32118e+27,5.67247e+26,1.69448e+12,0.129253,6.33001e+34,0.03468,0.0605772,0.0456679,1.00964e-41,1.41358e+17,2.79987e+17,1.86311e+13,4.21364e+17
1.07253e+07,1.2356e+06,1.64791e+07,6.50801e+27,5.82167e+26,1.71136e+12,0.12938,6.3006e+34,0.03468,0.0605772,0.0456679,1.00964e-41,1.41139e+17,2.79597e+17,1.85964e+13,4.20755e+17
1.08319e+07,1.23443e+06,1.64713e+07,6.70036e+27,5.97446e+26,1.72841e+12,0.12951,6.27073e+34,0.03468,0.0605772,0.0456679,1.00964e-41,1.40917e+17,2.792e+17,1.85611e+13,4.20136e+17
1.09397e+07,1.23324e+06,1.64633e+07,6.89839e+27,6.13091e+26,1.74565e+12,0.129643,6.2404e+34,0.03468,0.0605772,0.0456679,1.00964e-41,1.4069e+17,2.78796e+17,1.85251e+13,4.19504e+17
1.10402e+07,1.23212e+06,1.64558e+07,7.08638e+27,6.27863e+26,1.76171e+12,0.129767,6.21199e+34,0.03468,0.0605772,0.0456679,1.00964e-41,1.40478e+17,2.78415e+17,1.84913e+13,4.18911e+17
1.11416e+07,1.23098e+06,1.64482e+07,7.2795e+27,6.42959e+26,1.77793e+12,0.129895,6.18318e+34,0.03468,0.0605772,0.0456679,1.00964e-41,1.40261e+17,2.78028e+17,1.84569e+13,4.18308e+17
