X = 0.734
Y = 0.25
Z = 0.016
mu = 0.601142
Radius,Density,Temp,Mass,Lum,OptD,Kff,KH,Kes,PP,CNO,3a,Deg,Gas,Rad,TotPres
0,0,0,0,0,0,-nan,0,0.03468,0.00187387,6.87567e-06,5.60616e-50,0,0,0,0
1,153000,1.20731e+07,640885,1205.34,13628.2,0.089073,1.34815e+33,0.03468,0.00187387,6.87567e-06,5.60616e-50,4.34181e+15,2.53647e+16,5.35751e+12,2.97119e+16
30001,153000,1.20731e+07,1.73056e+19,3.25475e+16,4.08859e+08,0.089073,1.34815e+33,0.03468,0.00187387,6.87567e-06,5.60616e-50,4.34181e+15,2.53647e+16,5.35751e+12,2.97119e+16
70001,153000,1.20731e+07,2.19833e+20,4.1345e+17,9.53985e+08,0.089073,1.34815e+33,0.03468,0.00187387,6.87567e-06,5.60616e-50,4.34181e+15,2.53647e+16,5.35751e+12,2.97119e+16
150001,153000,1.20731e+07,2.16303e+21,4.0681e+18,2.04424e+09,0.0890732,1.34814e+33,0.03468,0.00187387,6.87567e-06,5.60616e-50,4.34179e+15,2.53646e+16,5.35749e+12,2.97118e+16
250001,152999,1.20731e+07,1.00139e+22,1.88335e+19,3.40705e+09,0.0890735,1.34812e+33,0.03468,0.00187387,6.87567e-06,5.60616e-50,4.34176e+15,2.53645e+16,5.35745e+12,2.97116e+16
350001,152998,1.2073e+07,2.7478e+22,5.16781e+19,4.76987e+09,0.0890739,1.34808e+33,0.03468,0.00187387,6.87567e-06,5.60616e-50,4.34172e+15,2.53643e+16,5.3574e+12,2.97114e+16
450001,152997,1.2073e+07,5.84003e+22,1.09833e+20,6.13268e+09,0.0890745,1.34803e+33,0.03468,0.00187387,6.87567e-06,5.60616e-50,4.34166e+15,2.5364e+16,5.35732e+12,2.9711e+16
550001,152995,1.20729e+07,1.06626e+23,2.00526e+20,7.4955e+09,0.0890753,1.34797e+33,0.03468,0.00187387,6.87566e-06,5.60616e-50,4.34159e+15,2.53636e+16,5.35723e+12,2.97106e+16
650001,152994,1.20729e+07,1.75999e+23,3.30988e+20,8.85831e+09,0.0890762,1.3479e+33,0.03468,0.00187387,6.87566e-06,5.60616e-50,4.34151e+15,2.53632e+16,5.35711e+12,2.97101e+16
750001,152992,1.20728e+07,2.70365e+23,5.08442e+20,1.02211e+10,0.0890773,1.34782e+33,0.03468,0.00187387,6.87566e-06,5.60616e-50,4.34141e+15,2.53627e+16,5.35698e+12,2.97095e+16
850001,152989,1.20727e+07,3.93568e+23,7.40114e+20,1.15839e+10,0.0890785,1.34772e+33,0.03468,0.00187387,6.87566e-06,5.60615e-50,4.3413e+15,2.53621e+16,5.35683e+12,2.97088e+16
950001,152986,1.20726e+07,5.49451e+23,1.03323e+21,1.29467e+10,0.0890799,1.34761e+33,0.03468,0.00187387,6.87566e-06,5.60615e-50,4.34117e+15,2.53615e+16,5.35666e+12,2.9708e+16
1.05e+06,152983,1.20725e+07,7.41859e+23,1.39499e+21,1.43095e+10,0.0890814,1.34749e+33,0.03468,0.00187387,6.87566e-06,5.60615e-50,4.34103e+15,2.53608e+16,5.35647e+12,2.97071e+16
1.15e+06,152980,1.20724e+07,9.74633e+23,1.83264e+21,1.56723e+10,0.0890831,1.34736e+33,0.03468,0.00187387,6.87566e-06,5.60614e-50,4.34087e+15,2.536e+16,5.35626e+12,2.97062e+16
1.25e+06,152977,1.20723e+07,1.25162e+24,2.35337e+21,1.70351e+10,0.0890849,1.34722e+33,0.03468,0.00187387,6.87564e-06,5.60612e-50,4.3407e+15,2.53591e+16,5.35604e+12,2.97052e+16
1.35e+06,152973,1.20721e+07,1.57665e+24,2.96439e+21,1.83979e+10,0.0890869,1.34706e+33,0.03468,0.00187387,6.87564e-06,5.60611e-50,4.34052e+15,2.53582e+16,5.35579e+12,2.97041e+16
1.45e+06,152969,1.2072e+07,1.95358e+24,3.67292e+21,1.97607e+10,0.0890891,1.34689e+33,0.03468,0.00187387,6.87564e-06,5.60611e-50,4.34032e+15,2.53572e+16,5.35553e+12,2.97029e+16
1.55e+06,152964,1.20718e+07,2.38624e+24,4.48614e+21,2.11235e+10,0.0890914,1.34671e+33,0.03468,0.00187387,6.87563e-06,5.6061e-50,4.34011e+15,2.53561e+16,5.35524e+12,2.97016e+16
1.65e+06,152959,1.20716e+07,2.87848e+24,5.41126e+21,2.24863e+10,0.0890938,1.34652e+33,0.03468,0.00187387,6.87562e-06,5.60608e-50,4.33989e+15,2.5355e+16,5.35494e+12,2.97002e+16
1.75e+06,152954,1.20715e+07,3.43413e+24,6.45547e+21,2.3849e+10,0.0890964,1.34632e+33,0.03468,0.00187387,6.87561e-06,5.60606e-50,4.33965e+15,2.53537e+16,5.35462e+12,2.96987e+16
1.85e+06,152949,1.20713e+07,4.05704e+24,7.62595e+21,2.52118e+10,0.0890992,1.3461e+33,0.03468,0.00187387,6.87557e-06,5.60598e-50,4.33939e+15,2.53524e+16,5.35428e+12,2.96972e+16
1.95e+06,152943,1.20711e+07,4.75103e+24,8.92987e+21,2.65746e+10,0.0891021,1.34587e+33,0.03468,0.00187386,6.87554e-06,5.60593e-50,4.33913e+15,2.53511e+16,5.35392e+12,2.96956e+16
2.05e+06,152937,1.20708e+07,5.51996e+24,1.03744e+22,2.79373e+10,0.0891052,1.34564e+33,0.03468,0.00187386,6.87554e-06,5.60593e-50,4.33885e+15,2.53496e+16,5.35355e+12,2.96938e+16
2.15e+06,152931,1.20706e+07,6.36764e+24,1.19668e+22,2.93001e+10,0.0891084,1.34538e+33,0.03468,0.00187386,6.87552e-06,5.60589e-50,4.33855e+15,2.53481e+16,5.35315e+12,2.9692e+16
2.25e+06,152925,1.20704e+07,7.29793e+24,1.37141e+22,3.06628e+10,0.0891118,1.34512e+33,0.03468,0.00187386,6.87548e-06,5.60582e-50,4.33824e+15,2.53466e+16,5.35274e+12,2.96902e+16
2.35e+06,152918,1.20701e+07,8.31465e+24,1.56235e+22,3.20255e+10,0.0891153,1.34485e+33,0.03468,0.00187386,6.87545e-06,5.60578e-50,4.33792e+15,2.53449e+16,5.3523e+12,2.96882e+16
2.45e+06,152911,1.20699e+07,9.42164e+24,1.77021e+22,3.33883e+10,0.089119,1.34456e+33,0.03468,0.00187385,6.87536e-06,5.60562e-50,4.33758e+15,2.53432e+16,5.35185e+12,2.96861e+16
2.55e+06,152903,1.20696e+07,1.06227e+25,1.99572e+22,3.4751e+10,0.0891228,1.34426e+33,0.03468,0.00187384,6.87527e-06,5.60545e-50,4.33723e+15,2.53414e+16,5.35138e+12,2.9684e+16
2.65e+06,152895,1.20694e+07,1.19218e+25,2.23958e+22,3.61137e+10,0.0891268,1.34395e+33,0.03468,0.00187384,6.87529e-06,5.60549e-50,4.33686e+15,2.53396e+16,5.35089e+12,2.96818e+16
2.75e+06,152887,1.20691e+07,1.33225e+25,2.5025e+22,3.74764e+10,0.089131,1.34362e+33,0.03468,0.00187384,6.87525e-06,5.60541e-50,4.33648e+15,2.53376e+16,5.35038e+12,2.96795e+16
2.85e+06,152879,1.20688e+07,1.48289e+25,2.7852e+22,3.88391e+10,0.0891353,1.34329e+33,0.03468,0.00187384,6.87518e-06,5.6053e-50,4.33609e+15,2.53356e+16,5.34985e+12,2.96771e+16
2.95e+06,152870,1.20685e+07,1.64447e+25,3.08838e+22,4.02018e+10,0.0891397,1.34294e+33,0.03468,0.00187383,6.87514e-06,5.60523e-50,4.33568e+15,2.53335e+16,5.3493e+12,2.96746e+16
3.05e+06,152862,1.20681e+07,1.81737e+25,3.41276e+22,4.15645e+10,0.0891443,1.34259e+33,0.03468,0.00187382,6.87502e-06,5.60501e-50,4.33526e+15,2.53314e+16,5.34874e+12,2.9672e+16
3.15e+06,152852,1.20678e+07,2.00198e+25,3.75905e+22,4.29272e+10,0.0891491,1.34221e+33,0.03468,0.00187381,6.87486e-06,5.60472e-50,4.33483e+15,2.53292e+16,5.34815e+12,2.96694e+16
3.25e+06,152843,1.20675e+07,2.19868e+25,4.12795e+22,4.42898e+10,0.089154,1.34183e+33,0.03468,0.00187381,6.8749e-06,5.6048e-50,4.33438e+15,2.53269e+16,5.34755e+12,2.96666e+16
3.35e+06,152833,1.20671e+07,2.40786e+25,4.52017e+22,4.56525e+10,0.0891591,1.34144e+33,0.03468,0.00187381,6.87484e-06,5.6047e-50,4.33392e+15,2.53245e+16,5.34693e+12,2.96638e+16
3.45e+06,152823,1.20668e+07,2.62988e+25,4.93641e+22,4.70151e+10,0.0891643,1.34103e+33,0.03468,0.0018738,6.87475e-06,5.60453e-50,4.33344e+15,2.53221e+16,5.34629e+12,2.96609e+16
3.55e+06,152813,1.20664e+07,2.86514e+25,5.37739e+22,4.83777e+10,0.0891697,1.34062e+33,0.03468,0.0018738,6.8747e-06,5.60444e-50,4.33295e+15,2.53196e+16,5.34563e+12,2.96579e+16
3.65e+06,152802,1.2066e+07,3.11402e+25,5.84379e+22,4.97404e+10,0.0891752,1.34019e+33,0.03468,0.00187379,6.87454e-06,5.60415e-50,4.33244e+15,2.5317e+16,5.34495e+12,2.96548e+16
3.75e+06,152791,1.20656e+07,3.3769e+25,6.33634e+22,5.1103e+10,0.0891809,1.33974e+33,0.03468,0.00187377,6.87432e-06,5.60375e-50,4.33192e+15,2.53144e+16,5.34426e+12,2.96516e+16
3.85e+06,152780,1.20652e+07,3.65416e+25,6.85572e+22,5.24656e+10,0.0891867,1.33929e+33,0.03468,0.00187377,6.87438e-06,5.60387e-50,4.33139e+15,2.53117e+16,5.34354e+12,2.96484e+16
3.95e+06,152768,1.20648e+07,3.94618e+25,7.40263e+22,5.38282e+10,0.0891927,1.33883e+33,0.03468,0.00187377,6.87431e-06,5.60374e-50,4.33084e+15,2.53089e+16,5.34281e+12,2.96451e+16
4.05e+06,152756,1.20644e+07,4.25334e+25,7.97778e+22,5.51907e+10,0.0891989,1.33835e+33,0.03468,0.00187376,6.87419e-06,5.60353e-50,4.33028e+15,2.5306e+16,5.34205e+12,2.96416e+16
4.15e+06,152744,1.20639e+07,4.57603e+25,8.58187e+22,5.65533e+10,0.0892052,1.33786e+33,0.03468,0.00187376,6.87412e-06,5.60341e-50,4.32971e+15,2.53031e+16,5.34128e+12,2.96381e+16
4.25e+06,152732,1.20635e+07,4.91462e+25,9.21558e+22,5.79159e+10,0.0892116,1.33736e+33,0.03468,0.00187374,6.87392e-06,5.60305e-50,4.32912e+15,2.53001e+16,5.34049e+12,2.96346e+16
4.35e+06,152719,1.2063e+07,5.2695e+25,9.87962e+22,5.92784e+10,0.0892182,1.33685e+33,0.03468,0.00187372,6.87364e-06,5.60255e-50,4.32852e+15,2.5297e+16,5.33968e+12,2.96309e+16
4.45e+06,152706,1.20626e+07,5.64104e+25,1.05747e+23,6.06409e+10,0.089225,1.33633e+33,0.03468,0.00187372,6.87373e-06,5.60271e-50,4.3279e+15,2.52939e+16,5.33885e+12,2.96271e+16
4.55e+06,152692,1.20621e+07,6.02963e+25,1.13014e+23,6.20034e+10,0.0892319,1.33579e+33,0.03468,0.00187372,6.87364e-06,5.60254e-50,4.32727e+15,2.52907e+16,5.33801e+12,2.96233e+16
4.65e+06,152679,1.20616e+07,6.43564e+25,1.20606e+23,6.33659e+10,0.089239,1.33525e+33,0.03468,0.00187371,6.8735e-06,5.60229e-50,4.32663e+15,2.52874e+16,5.33714e+12,2.96193e+16
4.75e+06,152665,1.20611e+07,6.85946e+25,1.28529e+23,6.47284e+10,0.0892462,1.33469e+33,0.03468,0.0018737,6.87341e-06,5.60214e-50,4.32597e+15,2.5284e+16,5.33626e+12,2.96153e+16
4.85e+06,152651,1.20606e+07,7.30147e+25,1.36789e+23,6.60909e+10,0.0892536,1.33412e+33,0.03468,0.00187368,6.87318e-06,5.60172e-50,4.3253e+15,2.52806e+16,5.33536e+12,2.96112e+16
4.95e+06,152636,1.20601e+07,7.76204e+25,1.45394e+23,6.74534e+10,0.0892611,1.33354e+33,0.03468,0.00187365,6.87284e-06,5.60111e-50,4.32461e+15,2.52771e+16,5.33444e+12,2.96071e+16
5.05e+06,152621,1.20595e+07,8.24155e+25,1.5435e+23,6.88158e+10,0.0892688,1.33294e+33,0.03468,0.00187366,6.87294e-06,5.6013e-50,4.32391e+15,2.52735e+16,5.3335e+12,2.96028e+16
5.15e+06,152606,1.2059e+07,8.74039e+25,1.63665e+23,7.01782e+10,0.0892767,1.33234e+33,0.03468,0.00187366,6.87284e-06,5.60111e-50,4.3232e+15,2.52699e+16,5.33254e+12,2.95984e+16
5.25e+06,152591,1.20584e+07,9.25893e+25,1.73345e+23,7.15406e+10,0.0892847,1.33172e+33,0.03468,0.00187364,6.87267e-06,5.60081e-50,4.32247e+15,2.52662e+16,5.33156e+12,2.9594e+16
5.35e+06,152575,1.20579e+07,9.79755e+25,1.83397e+23,7.2903e+10,0.0892928,1.3311e+33,0.03468,0.00187364,6.87257e-06,5.60064e-50,4.32173e+15,2.52624e+16,5.33057e+12,2.95895e+16
5.45e+06,152559,1.20573e+07,1.03566e+26,1.93828e+23,7.42654e+10,0.0893011,1.33046e+33,0.03468,0.00187362,6.87229e-06,5.60014e-50,4.32097e+15,2.52586e+16,5.32955e+12,2.95849e+16
5.55e+06,152543,1.20567e+07,1.09365e+26,2.04644e+23,7.56278e+10,0.0893096,1.32981e+33,0.03468,0.00187358,6.8719e-06,5.59943e-50,4.32021e+15,2.52547e+16,5.32852e+12,2.95802e+16
5.65e+06,152526,1.20561e+07,1.15377e+26,2.15852e+23,7.69901e+10,0.0893182,1.32914e+33,0.03468,0.00187359,6.87202e-06,5.59966e-50,4.31942e+15,2.52507e+16,5.32747e+12,2.95754e+16
5.75e+06,152509,1.20555e+07,1.21604e+26,2.27459e+23,7.83525e+10,0.089327,1.32847e+33,0.03468,0.00187358,6.8719e-06,5.59944e-50,4.31863e+15,2.52466e+16,5.3264e+12,2.95706e+16
5.85e+06,152492,1.20549e+07,1.28051e+26,2.39472e+23,7.97148e+10,0.0893359,1.32778e+33,0.03468,0.00187357,6.8717e-06,5.59909e-50,4.31782e+15,2.52425e+16,5.32531e+12,2.95656e+16
5.95e+06,152475,1.20543e+07,1.34721e+26,2.51898e+23,8.10771e+10,0.089345,1.32709e+33,0.03468,0.00187356,6.87159e-06,5.59889e-50,4.31699e+15,2.52383e+16,5.32421e+12,2.95606e+16
6.05e+06,152457,1.20536e+07,1.41619e+26,2.64742e+23,8.24394e+10,0.0893542,1.32638e+33,0.03468,0.00187354,6.87128e-06,5.59833e-50,4.31616e+15,2.5234e+16,5.32308e+12,2.95555e+16
6.15e+06,152439,1.2053e+07,1.48747e+26,2.78012e+23,8.38016e+10,0.0893636,1.32566e+33,0.03468,0.0018735,6.87082e-06,5.59752e-50,4.3153e+15,2.52297e+16,5.32194e+12,2.95503e+16
6.25e+06,152421,1.20523e+07,1.5611e+26,2.91715e+23,8.51639e+10,0.0893732,1.32493e+33,0.03468,0.00187351,6.87097e-06,5.59778e-50,4.31444e+15,2.52252e+16,5.32078e+12,2.9545e+16
6.35e+06,152402,1.20517e+07,1.63712e+26,3.05856e+23,8.65261e+10,0.0893829,1.32419e+33,0.03468,0.0018735,6.87083e-06,5.59753e-50,4.31356e+15,2.52208e+16,5.3196e+12,2.95396e+16
6.45e+06,152383,1.2051e+07,1.71556e+26,3.20443e+23,8.78883e+10,0.0893927,1.32343e+33,0.03468,0.00187349,6.87061e-06,5.59713e-50,4.31267e+15,2.52162e+16,5.3184e+12,2.95342e+16
6.55e+06,152364,1.20503e+07,1.79647e+26,3.35483e+23,8.92505e+10,0.0894027,1.32267e+33,0.03468,0.00187348,6.87048e-06,5.59691e-50,4.31176e+15,2.52116e+16,5.31718e+12,2.95287e+16
6.65e+06,152344,1.20496e+07,1.87986e+26,3.50981e+23,9.06127e+10,0.0894129,1.32189e+33,0.03468,0.00187345,6.87013e-06,5.59628e-50,4.31084e+15,2.52069e+16,5.31594e+12,2.9523e+16
6.75e+06,152324,1.20489e+07,1.9658e+26,3.66944e+23,9.19748e+10,0.0894232,1.3211e+33,0.03468,0.00187341,6.86962e-06,5.59537e-50,4.30991e+15,2.52021e+16,5.31469e+12,2.95173e+16
6.85e+06,152304,1.20482e+07,2.05431e+26,3.83379e+23,9.3337e+10,0.0894337,1.32031e+33,0.03468,0.00187342,6.86978e-06,5.59566e-50,4.30896e+15,2.51973e+16,5.31342e+12,2.95116e+16
6.95e+06,152284,1.20474e+07,2.14542e+26,4.00292e+23,9.46991e+10,0.0894444,1.3195e+33,0.03468,0.00187341,6.86962e-06,5.59538e-50,4.308e+15,2.51924e+16,5.31213e+12,2.95057e+16
7.05e+06,152263,1.20467e+07,2.23919e+26,4.1769e+23,9.60612e+10,0.0894551,1.31867e+33,0.03468,0.00187339,6.86938e-06,5.59494e-50,4.30702e+15,2.51874e+16,5.31082e+12,2.94997e+16
7.15e+06,152242,1.20459e+07,2.33564e+26,4.3558e+23,9.74232e+10,0.0894661,1.31784e+33,0.03468,0.00187338,6.86924e-06,5.59469e-50,4.30603e+15,2.51824e+16,5.30949e+12,2.94937e+16
7.25e+06,152221,1.20452e+07,2.43481e+26,4.53967e+23,9.87853e+10,0.0894772,1.317e+33,0.03468,0.00187335,6.86884e-06,5.59399e-50,4.30503e+15,2.51773e+16,5.30814e+12,2.94876e+16
7.35e+06,152199,1.20444e+07,2.53674e+26,4.72858e+23,1.00147e+11,0.0894884,1.31614e+33,0.03468,0.0018733,6.86828e-06,5.59298e-50,4.30401e+15,2.51721e+16,5.30678e+12,2.94814e+16
7.45e+06,152178,1.20436e+07,2.64147e+26,4.9226e+23,1.01509e+11,0.0894999,1.31528e+33,0.03468,0.00187332,6.86846e-06,5.5933e-50,4.30298e+15,2.51668e+16,5.3054e+12,2.94751e+16
7.55e+06,152155,1.20428e+07,2.74903e+26,5.12178e+23,1.02871e+11,0.0895114,1.3144e+33,0.03468,0.00187331,6.86828e-06,5.59299e-50,4.30194e+15,2.51615e+16,5.30399e+12,2.94687e+16
7.65e+06,152133,1.2042e+07,2.85946e+26,5.3262e+23,1.04233e+11,0.0895231,1.31351e+33,0.03468,0.00187329,6.86801e-06,5.5925e-50,4.30088e+15,2.51561e+16,5.30257e+12,2.94623e+16
7.75e+06,152110,1.20412e+07,2.97281e+26,5.53591e+23,1.05595e+11,0.089535,1.31261e+33,0.03468,0.00187328,6.86786e-06,5.59223e-50,4.29981e+15,2.51506e+16,5.30114e+12,2.94557e+16
7.85e+06,152087,1.20404e+07,3.08909e+26,5.75098e+23,1.06957e+11,0.0895471,1.3117e+33,0.03468,0.00187324,6.86743e-06,5.59146e-50,4.29873e+15,2.51451e+16,5.29968e+12,2.94491e+16
7.95e+06,152064,1.20395e+07,3.20836e+26,5.97147e+23,1.08319e+11,0.0895592,1.31078e+33,0.03468,0.00187319,6.8668e-06,5.59035e-50,4.29763e+15,2.51395e+16,5.29821e+12,2.94424e+16
8.05e+06,152040,1.20387e+07,3.33065e+26,6.19744e+23,1.09681e+11,0.0895716,1.30985e+33,0.03468,0.00187321,6.867e-06,5.5907e-50,4.29652e+15,2.51338e+16,5.29672e+12,2.94356e+16
8.15e+06,152017,1.20378e+07,3.456e+26,6.42896e+23,1.11043e+11,0.0895841,1.30891e+33,0.03468,0.00187319,6.86681e-06,5.59037e-50,4.29539e+15,2.51281e+16,5.2952e+12,2.94288e+16
8.25e+06,151992,1.2037e+07,3.58444e+26,6.66609e+23,1.12405e+11,0.0895967,1.30795e+33,0.03468,0.00187317,6.86651e-06,5.58983e-50,4.29425e+15,2.51223e+16,5.29368e+12,2.94218e+16
8.35e+06,151968,1.20361e+07,3.71601e+26,6.90888e+23,1.13766e+11,0.0896096,1.30699e+33,0.03468,0.00187316,6.86635e-06,5.58954e-50,4.2931e+15,2.51164e+16,5.29213e+12,2.94148e+16
8.45e+06,151943,1.20352e+07,3.85075e+26,7.15741e+23,1.15128e+11,0.0896225,1.30601e+33,0.03468,0.00187313,6.86588e-06,5.5887e-50,4.29194e+15,2.51105e+16,5.29056e+12,2.94077e+16
8.55e+06,151918,1.20343e+07,3.98869e+26,7.41173e+23,1.1649e+11,0.0896357,1.30503e+33,0.03468,0.00187307,6.8652e-06,5.58749e-50,4.29076e+15,2.51044e+16,5.28898e+12,2.94005e+16
8.65e+06,151893,1.20334e+07,4.12987e+26,7.6719e+23,1.17852e+11,0.0896489,1.30403e+33,0.03468,0.00187309,6.86541e-06,5.58787e-50,4.28956e+15,2.50983e+16,5.28738e+12,2.93932e+16
8.75e+06,151867,1.20325e+07,4.27434e+26,7.93799e+23,1.19213e+11,0.0896624,1.30302e+33,0.03468,0.00187307,6.86521e-06,5.58751e-50,4.28836e+15,2.50922e+16,5.28576e+12,2.93858e+16
8.85e+06,151841,1.20315e+07,4.42211e+26,8.21005e+23,1.20575e+11,0.089676,1.302e+33,0.03468,0.00187305,6.86488e-06,5.58693e-50,4.28714e+15,2.5086e+16,5.28412e+12,2.93784e+16
8.95e+06,151815,1.20306e+07,4.57324e+26,8.48815e+23,1.21937e+11,0.0896897,1.30097e+33,0.03468,0.00187303,6.8647e-06,5.58661e-50,4.28591e+15,2.50797e+16,5.28247e+12,2.93709e+16
9.05e+06,151788,1.20296e+07,4.72776e+26,8.77234e+23,1.23298e+11,0.0897036,1.29993e+33,0.03468,0.001873,6.86419e-06,5.5857e-50,4.28466e+15,2.50733e+16,5.2808e+12,2.93632e+16
9.15e+06,151762,1.20287e+07,4.8857e+26,9.06269e+23,1.2466e+11,0.0897177,1.29888e+33,0.03468,0.00187293,6.86346e-06,5.58439e-50,4.2834e+15,2.50669e+16,5.2791e+12,2.93556e+16
9.25e+06,151735,1.20277e+07,5.04711e+26,9.35925e+23,1.26021e+11,0.0897319,1.29782e+33,0.03468,0.00187295,6.86369e-06,5.5848e-50,4.28213e+15,2.50604e+16,5.27739e+12,2.93478e+16
9.35e+06,151707,1.20267e+07,5.21201e+26,9.66209e+23,1.27383e+11,0.0897463,1.29674e+33,0.03468,0.00187294,6.86347e-06,5.58441e-50,4.28084e+15,2.50538e+16,5.27567e+12,2.93399e+16
9.45e+06,151680,1.20257e+07,5.38045e+26,9.97125e+23,1.28744e+11,0.0897608,1.29566e+33,0.03468,0.00187291,6.86312e-06,5.58378e-50,4.27954e+15,2.50472e+16,5.27392e+12,2.9332e+16
9.55e+06,151652,1.20247e+07,5.55246e+26,1.02868e+24,1.30106e+11,0.0897755,1.29457e+33,0.03468,0.0018729,6.86293e-06,5.58344e-50,4.27822e+15,2.50405e+16,5.27216e+12,2.9324e+16
9.65e+06,151623,1.20237e+07,5.72807e+26,1.06088e+24,1.31467e+11,0.0897904,1.29346e+33,0.03468,0.00187286,6.86238e-06,5.58246e-50,4.2769e+15,2.50337e+16,5.27038e+12,2.93158e+16
9.75e+06,151595,1.20227e+07,5.90733e+26,1.09373e+24,1.32829e+11,0.0898054,1.29235e+33,0.03468,0.00187279,6.86158e-06,5.58105e-50,4.27556e+15,2.50268e+16,5.26858e+12,2.93077e+16
9.85e+06,151566,1.20216e+07,6.09027e+26,1.12724e+24,1.3419e+11,0.0898205,1.29122e+33,0.03468,0.00187281,6.86184e-06,5.5815e-50,4.2742e+15,2.50199e+16,5.26676e+12,2.92994e+16
9.95e+06,151537,1.20206e+07,6.27693e+26,1.16141e+24,1.35552e+11,0.0898358,1.29009e+33,0.03468,0.00187279,6.8616e-06,5.58108e-50,4.27283e+15,2.50129e+16,5.26493e+12,2.9291e+16
1.005e+07,151508,1.20195e+07,6.46734e+26,1.19625e+24,1.36913e+11,0.0898513,1.28894e+33,0.03468,0.00187277,6.86122e-06,5.5804e-50,4.27145e+15,2.50059e+16,5.26307e+12,2.92826e+16
1.015e+07,151478,1.20185e+07,6.66154e+26,1.23176e+24,1.38274e+11,0.0898669,1.28778e+33,0.03468,0.00187275,6.86101e-06,5.58003e-50,4.27006e+15,2.49988e+16,5.2612e+12,2.92741e+16
1.025e+07,151448,1.20174e+07,6.85957e+26,1.26795e+24,1.39635e+11,0.0898827,1.28662e+33,0.03468,0.00187271,6.86043e-06,5.57899e-50,4.26865e+15,2.49916e+16,5.25931e+12,2.92655e+16
1.035e+07,151418,1.20163e+07,7.06145e+26,1.30483e+24,1.40997e+11,0.0898987,1.28544e+33,0.03468,0.00187264,6.85958e-06,5.57748e-50,4.26723e+15,2.49843e+16,5.25741e+12,2.92568e+16
1.045e+07,151387,1.20152e+07,7.26724e+26,1.34239e+24,1.42358e+11,0.0899148,1.28425e+33,0.03468,0.00187266,6.85985e-06,5.57796e-50,4.2658e+15,2.4977e+16,5.25548e+12,2.92481e+16
1.055e+07,151356,1.20141e+07,7.47696e+26,1.38066e+24,1.43719e+11,0.089931,1.28305e+33,0.03468,0.00187264,6.85959e-06,5.57751e-50,4.26435e+15,2.49696e+16,5.25354e+12,2.92392e+16
1.065e+07,151325,1.2013e+07,7.69065e+26,1.41962e+24,1.4508e+11,0.0899475,1.28185e+33,0.03468,0.00187261,6.85919e-06,5.57679e-50,4.26289e+15,2.49622e+16,5.25158e+12,2.92303e+16
1.075e+07,151294,1.20118e+07,7.90834e+26,1.45929e+24,1.46441e+11,0.089964,1.28063e+33,0.03468,0.00187259,6.85897e-06,5.57639e-50,4.26142e+15,2.49546e+16,5.24961e+12,2.92213e+16
1.085e+07,151262,1.20107e+07,8.13008e+26,1.49968e+24,1.47802e+11,0.0899808,1.2794e+33,0.03468,0.00187255,6.85834e-06,5.57528e-50,4.25993e+15,2.4947e+16,5.24761e+12,2.92122e+16
1.095e+07,151230,1.20095e+07,8.3559e+26,1.54078e+24,1.49164e+11,0.0899977,1.27816e+33,0.03468,0.00187247,6.85744e-06,5.57367e-50,4.25843e+15,2.49394e+16,5.2456e+12,2.92031e+16
