X = 0.734
Y = 0.25
Z = 0.016
mu = 0.601142
Radius,Density,Temp,Mass,Lum,OptD,Kff,KH,Kes,PP,CNO,3a,Deg,Gas,Rad,TotPres
0,0,0,0,0,0,-nan,0,0.03468,0.000830116,1.52336e-07,1.24741e-53,0,0,0,0
1,144000,1e+07,603186,500.806,23770.7,0.165074,2.4e+32,0.03468,0.000830116,1.52336e-07,1.24741e-53,3.92454e+15,1.97735e+16,2.52168e+12,2.37005e+16
30001,144000,1e+07,1.62876e+19,1.35231e+16,7.13145e+08,0.165074,2.4e+32,0.03468,0.000830116,1.52336e-07,1.24741e-53,3.92454e+15,1.97735e+16,2.52168e+12,2.37005e+16
70001,144000,1e+07,2.06902e+20,1.71784e+17,1.66397e+09,0.165074,2.4e+32,0.03468,0.000830116,1.52336e-07,1.2474e-53,3.92454e+15,1.97735e+16,2.52168e+12,2.37005e+16
150001,144000,9.99999e+06,2.03579e+21,1.69024e+18,3.56563e+09,0.165075,2.39998e+32,0.03468,0.000830116,1.52336e-07,1.24741e-53,3.92453e+15,1.97734e+16,2.52167e+12,2.37005e+16
250001,143999,9.99997e+06,9.42485e+21,7.82506e+18,5.9427e+09,0.165075,2.39993e+32,0.03468,0.000830116,1.52336e-07,1.2474e-53,3.9245e+15,1.97733e+16,2.52165e+12,2.37003e+16
350001,143998,9.99994e+06,2.58616e+22,2.14716e+19,8.31976e+09,0.165076,2.39986e+32,0.03468,0.000830116,1.52336e-07,1.2474e-53,3.92446e+15,1.97731e+16,2.52162e+12,2.37001e+16
450001,143997,9.9999e+06,5.4965e+22,4.56339e+19,1.06968e+10,0.165077,2.39976e+32,0.03468,0.000830116,1.52336e-07,1.2474e-53,3.9244e+15,1.97728e+16,2.52158e+12,2.36998e+16
550001,143995,9.99985e+06,1.00354e+23,8.33158e+19,1.30739e+10,0.165079,2.39964e+32,0.03468,0.000830115,1.52336e-07,1.2474e-53,3.92433e+15,1.97725e+16,2.52153e+12,2.36994e+16
650001,143993,9.99979e+06,1.65646e+23,1.3752e+20,1.5451e+10,0.165081,2.3995e+32,0.03468,0.000830115,1.52336e-07,1.2474e-53,3.92425e+15,1.97722e+16,2.52147e+12,2.36989e+16
750001,143991,9.99973e+06,2.54461e+23,2.11249e+20,1.7828e+10,0.165083,2.39934e+32,0.03468,0.000830115,1.52336e-07,1.2474e-53,3.92415e+15,1.97717e+16,2.5214e+12,2.36984e+16
850001,143989,9.99965e+06,3.70416e+23,3.07504e+20,2.02051e+10,0.165086,2.39915e+32,0.03468,0.000830115,1.52336e-07,1.2474e-53,3.92403e+15,1.97712e+16,2.52133e+12,2.36978e+16
950001,143986,9.99956e+06,5.17128e+23,4.29284e+20,2.25821e+10,0.165089,2.39893e+32,0.03468,0.000830115,1.52336e-07,1.2474e-53,3.92391e+15,1.97707e+16,2.52124e+12,2.36971e+16
1.05e+06,143983,9.99946e+06,6.98215e+23,5.7959e+20,2.49592e+10,0.165092,2.3987e+32,0.03468,0.000830115,1.52336e-07,1.2474e-53,3.92377e+15,1.97701e+16,2.52114e+12,2.36964e+16
1.15e+06,143980,9.99935e+06,9.17295e+23,7.61417e+20,2.73362e+10,0.165095,2.39843e+32,0.03468,0.000830115,1.52336e-07,1.2474e-53,3.92361e+15,1.97694e+16,2.52103e+12,2.36955e+16
1.25e+06,143976,9.99924e+06,1.17798e+24,9.77763e+20,2.97132e+10,0.165099,2.39815e+32,0.03468,0.000830115,1.52336e-07,1.2474e-53,3.92345e+15,1.97687e+16,2.52091e+12,2.36946e+16
1.35e+06,143972,9.99911e+06,1.48389e+24,1.23162e+21,3.20903e+10,0.165103,2.39784e+32,0.03468,0.000830115,1.52336e-07,1.24739e-53,3.92326e+15,1.97679e+16,2.52078e+12,2.36936e+16
1.45e+06,143968,9.99897e+06,1.83864e+24,1.52598e+21,3.44673e+10,0.165108,2.39751e+32,0.03468,0.000830115,1.52336e-07,1.24739e-53,3.92307e+15,1.9767e+16,2.52065e+12,2.36926e+16
1.55e+06,143963,9.99883e+06,2.24585e+24,1.86384e+21,3.68443e+10,0.165112,2.39716e+32,0.03468,0.000830114,1.52336e-07,1.24739e-53,3.92286e+15,1.97661e+16,2.5205e+12,2.36914e+16
1.65e+06,143958,9.99867e+06,2.70912e+24,2.24818e+21,3.92213e+10,0.165118,2.39678e+32,0.03468,0.000830114,1.52335e-07,1.24738e-53,3.92264e+15,1.97651e+16,2.52034e+12,2.36902e+16
1.75e+06,143953,9.9985e+06,3.23207e+24,2.68199e+21,4.15983e+10,0.165123,2.39638e+32,0.03468,0.000830113,1.52335e-07,1.24738e-53,3.9224e+15,1.9764e+16,2.52017e+12,2.3689e+16
1.85e+06,143947,9.99833e+06,3.81831e+24,3.16825e+21,4.39753e+10,0.165129,2.39595e+32,0.03468,0.000830112,1.52334e-07,1.24736e-53,3.92215e+15,1.97629e+16,2.51999e+12,2.36876e+16
1.95e+06,143941,9.99814e+06,4.47146e+24,3.70995e+21,4.63523e+10,0.165135,2.3955e+32,0.03468,0.000830111,1.52333e-07,1.24735e-53,3.92188e+15,1.97618e+16,2.51981e+12,2.36862e+16
2.05e+06,143935,9.99795e+06,5.19513e+24,4.31006e+21,4.87292e+10,0.165141,2.39503e+32,0.03468,0.000830111,1.52333e-07,1.24735e-53,3.9216e+15,1.97605e+16,2.51961e+12,2.36846e+16
2.15e+06,143929,9.99774e+06,5.99292e+24,4.97155e+21,5.11062e+10,0.165148,2.39453e+32,0.03468,0.00083011,1.52333e-07,1.24734e-53,3.92131e+15,1.97592e+16,2.5194e+12,2.36831e+16
2.25e+06,143922,9.99753e+06,6.86844e+24,5.69741e+21,5.34831e+10,0.165155,2.39401e+32,0.03468,0.000830108,1.52332e-07,1.24732e-53,3.921e+15,1.97579e+16,2.51919e+12,2.36814e+16
2.35e+06,143915,9.9973e+06,7.82531e+24,6.49059e+21,5.58601e+10,0.165162,2.39347e+32,0.03468,0.000830107,1.52331e-07,1.24731e-53,3.92068e+15,1.97565e+16,2.51896e+12,2.36797e+16
2.45e+06,143908,9.99707e+06,8.86712e+24,7.35407e+21,5.8237e+10,0.16517,2.3929e+32,0.03468,0.000830104,1.52329e-07,1.24727e-53,3.92035e+15,1.9755e+16,2.51872e+12,2.36779e+16
2.55e+06,143900,9.99682e+06,9.99749e+24,8.2908e+21,6.06139e+10,0.165178,2.39231e+32,0.03468,0.0008301,1.52327e-07,1.24723e-53,3.92e+15,1.97535e+16,2.51848e+12,2.3676e+16
2.65e+06,143892,9.99657e+06,1.122e+25,9.30376e+21,6.29908e+10,0.165186,2.3917e+32,0.03468,0.000830101,1.52327e-07,1.24724e-53,3.91964e+15,1.97519e+16,2.51822e+12,2.3674e+16
2.75e+06,143884,9.9963e+06,1.25383e+25,1.03959e+22,6.53677e+10,0.165195,2.39106e+32,0.03468,0.0008301,1.52326e-07,1.24722e-53,3.91926e+15,1.97502e+16,2.51795e+12,2.3672e+16
2.85e+06,143875,9.99603e+06,1.3956e+25,1.15701e+22,6.77446e+10,0.165204,2.3904e+32,0.03468,0.000830097,1.52325e-07,1.24719e-53,3.91887e+15,1.97485e+16,2.51768e+12,2.36699e+16
2.95e+06,143866,9.99575e+06,1.54766e+25,1.28294e+22,7.01215e+10,0.165213,2.38971e+32,0.03468,0.000830096,1.52324e-07,1.24717e-53,3.91846e+15,1.97467e+16,2.51739e+12,2.36677e+16
3.05e+06,143857,9.99545e+06,1.71038e+25,1.41768e+22,7.24983e+10,0.165222,2.38901e+32,0.03468,0.000830091,1.52321e-07,1.24712e-53,3.91805e+15,1.97448e+16,2.5171e+12,2.36654e+16
3.15e+06,143847,9.99515e+06,1.88411e+25,1.5615e+22,7.48751e+10,0.165232,2.38828e+32,0.03468,0.000830085,1.52317e-07,1.24705e-53,3.91761e+15,1.97429e+16,2.51679e+12,2.36631e+16
3.25e+06,143838,9.99484e+06,2.06922e+25,1.71472e+22,7.7252e+10,0.165242,2.38752e+32,0.03468,0.000830087,1.52318e-07,1.24707e-53,3.91717e+15,1.9741e+16,2.51648e+12,2.36607e+16
3.35e+06,143827,9.99451e+06,2.26607e+25,1.87762e+22,7.96288e+10,0.165253,2.38674e+32,0.03468,0.000830085,1.52316e-07,1.24704e-53,3.91671e+15,1.97389e+16,2.51615e+12,2.36582e+16
3.45e+06,143817,9.99418e+06,2.47501e+25,2.05049e+22,8.20056e+10,0.165264,2.38594e+32,0.03468,0.000830081,1.52314e-07,1.247e-53,3.91624e+15,1.97369e+16,2.51582e+12,2.36556e+16
3.55e+06,143806,9.99384e+06,2.69641e+25,2.23363e+22,8.43823e+10,0.165275,2.38512e+32,0.03468,0.000830079,1.52313e-07,1.24698e-53,3.91575e+15,1.97347e+16,2.51547e+12,2.3653e+16
3.65e+06,143795,9.99349e+06,2.93062e+25,2.42732e+22,8.67591e+10,0.165286,2.38427e+32,0.03468,0.000830073,1.52309e-07,1.24691e-53,3.91525e+15,1.97325e+16,2.51512e+12,2.36503e+16
3.75e+06,143784,9.99313e+06,3.178e+25,2.63187e+22,8.91358e+10,0.165298,2.3834e+32,0.03468,0.000830064,1.52303e-07,1.24681e-53,3.91473e+15,1.97302e+16,2.51475e+12,2.36475e+16
3.85e+06,143772,9.99275e+06,3.43891e+25,2.84755e+22,9.15125e+10,0.16531,2.38251e+32,0.03468,0.000830067,1.52305e-07,1.24684e-53,3.9142e+15,1.97279e+16,2.51438e+12,2.36446e+16
3.95e+06,143760,9.99237e+06,3.71372e+25,3.07466e+22,9.38892e+10,0.165323,2.38159e+32,0.03468,0.000830064,1.52303e-07,1.24681e-53,3.91366e+15,1.97255e+16,2.514e+12,2.36417e+16
4.05e+06,143748,9.99198e+06,4.00277e+25,3.31349e+22,9.62659e+10,0.165336,2.38065e+32,0.03468,0.00083006,1.523e-07,1.24675e-53,3.9131e+15,1.9723e+16,2.5136e+12,2.36387e+16
4.15e+06,143735,9.99158e+06,4.30642e+25,3.56433e+22,9.86426e+10,0.165349,2.37969e+32,0.03468,0.000830058,1.52299e-07,1.24673e-53,3.91253e+15,1.97205e+16,2.5132e+12,2.36356e+16
4.25e+06,143723,9.99117e+06,4.62504e+25,3.82746e+22,1.01019e+11,0.165362,2.3787e+32,0.03468,0.00083005,1.52294e-07,1.24664e-53,3.91195e+15,1.9718e+16,2.51279e+12,2.36324e+16
4.35e+06,143709,9.99075e+06,4.95899e+25,4.10318e+22,1.03396e+11,0.165376,2.37769e+32,0.03468,0.000830039,1.52287e-07,1.24651e-53,3.91135e+15,1.97153e+16,2.51236e+12,2.36292e+16
4.45e+06,143696,9.99032e+06,5.30861e+25,4.39177e+22,1.05772e+11,0.16539,2.37666e+32,0.03468,0.000830043,1.52289e-07,1.24655e-53,3.91074e+15,1.97126e+16,2.51193e+12,2.36259e+16
4.55e+06,143682,9.98988e+06,5.67427e+25,4.69351e+22,1.08149e+11,0.165404,2.37561e+32,0.03468,0.000830039,1.52287e-07,1.24651e-53,3.91011e+15,1.97099e+16,2.51149e+12,2.36225e+16
4.65e+06,143668,9.98943e+06,6.05632e+25,5.00869e+22,1.10526e+11,0.165419,2.37453e+32,0.03468,0.000830034,1.52283e-07,1.24645e-53,3.90947e+15,1.9707e+16,2.51104e+12,2.3619e+16
4.75e+06,143654,9.98897e+06,6.45513e+25,5.3376e+22,1.12902e+11,0.165434,2.37343e+32,0.03468,0.000830031,1.52281e-07,1.24641e-53,3.90882e+15,1.97042e+16,2.51058e+12,2.36155e+16
4.85e+06,143639,9.9885e+06,6.87104e+25,5.68052e+22,1.15279e+11,0.165449,2.3723e+32,0.03468,0.000830022,1.52275e-07,1.24631e-53,3.90816e+15,1.97012e+16,2.51011e+12,2.36119e+16
4.95e+06,143624,9.98803e+06,7.30442e+25,6.03774e+22,1.17655e+11,0.165465,2.37116e+32,0.03468,0.000830009,1.52267e-07,1.24616e-53,3.90747e+15,1.96982e+16,2.50962e+12,2.36082e+16
5.05e+06,143609,9.98754e+06,7.75562e+25,6.40953e+22,1.20032e+11,0.165481,2.36999e+32,0.03468,0.000830013,1.5227e-07,1.24621e-53,3.90678e+15,1.96952e+16,2.50913e+12,2.36044e+16
5.15e+06,143593,9.98704e+06,8.225e+25,6.79619e+22,1.22408e+11,0.165497,2.36879e+32,0.03468,0.000830009,1.52267e-07,1.24616e-53,3.90607e+15,1.9692e+16,2.50863e+12,2.36006e+16
5.25e+06,143577,9.98653e+06,8.71291e+25,7.19799e+22,1.24784e+11,0.165514,2.36758e+32,0.03468,0.000830003,1.52263e-07,1.24608e-53,3.90535e+15,1.96888e+16,2.50812e+12,2.35967e+16
5.35e+06,143561,9.98601e+06,9.21971e+25,7.6152e+22,1.27161e+11,0.165531,2.36634e+32,0.03468,0.000829999,1.5226e-07,1.24604e-53,3.90462e+15,1.96856e+16,2.5076e+12,2.35927e+16
5.45e+06,143544,9.98549e+06,9.74575e+25,8.04813e+22,1.29537e+11,0.165548,2.36508e+32,0.03468,0.000829989,1.52254e-07,1.24592e-53,3.90387e+15,1.96823e+16,2.50707e+12,2.35887e+16
5.55e+06,143527,9.98495e+06,1.02914e+26,8.49703e+22,1.31914e+11,0.165566,2.3638e+32,0.03468,0.000829973,1.52244e-07,1.24574e-53,3.9031e+15,1.96789e+16,2.50653e+12,2.35845e+16
5.65e+06,143510,9.9844e+06,1.0857e+26,8.9622e+22,1.3429e+11,0.165583,2.36249e+32,0.03468,0.000829978,1.52247e-07,1.2458e-53,3.90233e+15,1.96755e+16,2.50598e+12,2.35803e+16
5.75e+06,143493,9.98385e+06,1.14429e+26,9.4439e+22,1.36666e+11,0.165602,2.36116e+32,0.03468,0.000829974,1.52244e-07,1.24574e-53,3.90154e+15,1.9672e+16,2.50543e+12,2.35761e+16
5.85e+06,143475,9.98328e+06,1.20495e+26,9.94242e+22,1.39042e+11,0.16562,2.35981e+32,0.03468,0.000829967,1.52239e-07,1.24566e-53,3.90073e+15,1.96685e+16,2.50486e+12,2.35717e+16
5.95e+06,143457,9.9827e+06,1.26771e+26,1.0458e+23,1.41419e+11,0.165639,2.35844e+32,0.03468,0.000829963,1.52236e-07,1.24561e-53,3.89991e+15,1.96649e+16,2.50428e+12,2.35673e+16
6.05e+06,143439,9.98212e+06,1.3326e+26,1.0991e+23,1.43795e+11,0.165658,2.35704e+32,0.03468,0.000829951,1.52229e-07,1.24547e-53,3.89908e+15,1.96612e+16,2.50369e+12,2.35628e+16
6.15e+06,143420,9.98152e+06,1.39967e+26,1.15416e+23,1.46171e+11,0.165678,2.35563e+32,0.03468,0.000829933,1.52217e-07,1.24527e-53,3.89824e+15,1.96575e+16,2.5031e+12,2.35582e+16
6.25e+06,143401,9.98092e+06,1.46895e+26,1.21102e+23,1.48547e+11,0.165698,2.35418e+32,0.03468,0.000829939,1.52221e-07,1.24534e-53,3.89738e+15,1.96537e+16,2.50249e+12,2.35536e+16
6.35e+06,143382,9.9803e+06,1.54047e+26,1.26969e+23,1.50923e+11,0.165718,2.35272e+32,0.03468,0.000829934,1.52218e-07,1.24527e-53,3.89651e+15,1.96498e+16,2.50187e+12,2.35488e+16
6.45e+06,143362,9.97968e+06,1.61426e+26,1.33021e+23,1.53299e+11,0.165738,2.35124e+32,0.03468,0.000829926,1.52212e-07,1.24518e-53,3.89562e+15,1.96459e+16,2.50125e+12,2.3544e+16
6.55e+06,143342,9.97904e+06,1.69038e+26,1.3926e+23,1.55675e+11,0.165759,2.34973e+32,0.03468,0.000829921,1.52209e-07,1.24512e-53,3.89472e+15,1.96419e+16,2.50061e+12,2.35392e+16
6.65e+06,143322,9.9784e+06,1.76884e+26,1.45689e+23,1.58051e+11,0.16578,2.3482e+32,0.03468,0.000829908,1.522e-07,1.24496e-53,3.89381e+15,1.96379e+16,2.49996e+12,2.35342e+16
6.75e+06,143302,9.97775e+06,1.84968e+26,1.5231e+23,1.60427e+11,0.165802,2.34665e+32,0.03468,0.000829887,1.52188e-07,1.24474e-53,3.89288e+15,1.96338e+16,2.49931e+12,2.35292e+16
6.85e+06,143281,9.97708e+06,1.93295e+26,1.59128e+23,1.62803e+11,0.165823,2.34508e+32,0.03468,0.000829894,1.52192e-07,1.24481e-53,3.89194e+15,1.96297e+16,2.49864e+12,2.35241e+16
6.95e+06,143260,9.97641e+06,2.01866e+26,1.66143e+23,1.65179e+11,0.165845,2.34348e+32,0.03468,0.000829888,1.52188e-07,1.24474e-53,3.89099e+15,1.96255e+16,2.49797e+12,2.35189e+16
7.05e+06,143239,9.97573e+06,2.10687e+26,1.73359e+23,1.67555e+11,0.165868,2.34186e+32,0.03468,0.00082988,1.52182e-07,1.24463e-53,3.89002e+15,1.96212e+16,2.49729e+12,2.35137e+16
7.15e+06,143217,9.97503e+06,2.1976e+26,1.80778e+23,1.69931e+11,0.165891,2.34022e+32,0.03468,0.000829874,1.52178e-07,1.24457e-53,3.88904e+15,1.96169e+16,2.49659e+12,2.35084e+16
7.25e+06,143195,9.97433e+06,2.2909e+26,1.88403e+23,1.72307e+11,0.165914,2.33856e+32,0.03468,0.00082986,1.52169e-07,1.2444e-53,3.88805e+15,1.96125e+16,2.49589e+12,2.3503e+16
7.35e+06,143173,9.97362e+06,2.38678e+26,1.96237e+23,1.74683e+11,0.165937,2.33688e+32,0.03468,0.000829837,1.52155e-07,1.24415e-53,3.88704e+15,1.9608e+16,2.49518e+12,2.34976e+16
7.45e+06,143150,9.9729e+06,2.4853e+26,2.04282e+23,1.77058e+11,0.165961,2.33517e+32,0.03468,0.000829844,1.52159e-07,1.24423e-53,3.88602e+15,1.96035e+16,2.49446e+12,2.3492e+16
7.55e+06,143127,9.97217e+06,2.58648e+26,2.12541e+23,1.79434e+11,0.165985,2.33345e+32,0.03468,0.000829838,1.52155e-07,1.24415e-53,3.88498e+15,1.95989e+16,2.49373e+12,2.34864e+16
7.65e+06,143104,9.97143e+06,2.69036e+26,2.21017e+23,1.8181e+11,0.166009,2.3317e+32,0.03468,0.000829829,1.52148e-07,1.24403e-53,3.88393e+15,1.95943e+16,2.49298e+12,2.34807e+16
7.75e+06,143081,9.97068e+06,2.79697e+26,2.29712e+23,1.84186e+11,0.166034,2.32993e+32,0.03468,0.000829822,1.52145e-07,1.24397e-53,3.88287e+15,1.95896e+16,2.49223e+12,2.3475e+16
7.85e+06,143057,9.96992e+06,2.90636e+26,2.38628e+23,1.86561e+11,0.166059,2.32813e+32,0.03468,0.000829807,1.52134e-07,1.24378e-53,3.8818e+15,1.95849e+16,2.49147e+12,2.34692e+16
7.95e+06,143033,9.96915e+06,3.01854e+26,2.47768e+23,1.88937e+11,0.166084,2.32632e+32,0.03468,0.000829781,1.52119e-07,1.2435e-53,3.88071e+15,1.95801e+16,2.4907e+12,2.34633e+16
8.05e+06,143008,9.96837e+06,3.13357e+26,2.57135e+23,1.91312e+11,0.16611,2.32449e+32,0.03468,0.00082979,1.52124e-07,1.24359e-53,3.87961e+15,1.95752e+16,2.48993e+12,2.34573e+16
8.15e+06,142984,9.96758e+06,3.25147e+26,2.66732e+23,1.93688e+11,0.166136,2.32263e+32,0.03468,0.000829783,1.52119e-07,1.24351e-53,3.87849e+15,1.95703e+16,2.48914e+12,2.34512e+16
8.25e+06,142959,9.96678e+06,3.37228e+26,2.7656e+23,1.96063e+11,0.166162,2.32075e+32,0.03468,0.000829773,1.52112e-07,1.24337e-53,3.87736e+15,1.95653e+16,2.48834e+12,2.34451e+16
8.35e+06,142933,9.96597e+06,3.49603e+26,2.86623e+23,1.98439e+11,0.166189,2.31885e+32,0.03468,0.000829766,1.52107e-07,1.2433e-53,3.87622e+15,1.95602e+16,2.48753e+12,2.34389e+16
8.45e+06,142908,9.96515e+06,3.62275e+26,2.96923e+23,2.00814e+11,0.166215,2.31693e+32,0.03468,0.000829749,1.52096e-07,1.24309e-53,3.87506e+15,1.95551e+16,2.48671e+12,2.34327e+16
8.55e+06,142882,9.96432e+06,3.75249e+26,3.07462e+23,2.03189e+11,0.166243,2.31499e+32,0.03468,0.000829721,1.52079e-07,1.2428e-53,3.87389e+15,1.955e+16,2.48589e+12,2.34263e+16
8.65e+06,142856,9.96349e+06,3.88528e+26,3.18243e+23,2.05565e+11,0.16627,2.31303e+32,0.03468,0.00082973,1.52085e-07,1.24289e-53,3.87271e+15,1.95447e+16,2.48505e+12,2.34199e+16
8.75e+06,142829,9.96264e+06,4.02114e+26,3.29268e+23,2.0794e+11,0.166298,2.31105e+32,0.03468,0.000829723,1.52079e-07,1.2428e-53,3.87151e+15,1.95395e+16,2.48421e+12,2.34135e+16
8.85e+06,142803,9.96178e+06,4.16013e+26,3.40541e+23,2.10315e+11,0.166326,2.30904e+32,0.03468,0.000829711,1.52071e-07,1.24266e-53,3.8703e+15,1.95341e+16,2.48335e+12,2.34069e+16
8.95e+06,142776,9.96092e+06,4.30226e+26,3.52062e+23,2.1269e+11,0.166355,2.30702e+32,0.03468,0.000829704,1.52067e-07,1.24258e-53,3.86908e+15,1.95287e+16,2.48249e+12,2.34003e+16
9.05e+06,142748,9.96004e+06,4.44757e+26,3.63835e+23,2.15065e+11,0.166384,2.30497e+32,0.03468,0.000829686,1.52055e-07,1.24235e-53,3.86785e+15,1.95233e+16,2.48162e+12,2.33936e+16
9.15e+06,142720,9.95915e+06,4.59611e+26,3.75863e+23,2.17441e+11,0.166413,2.3029e+32,0.03468,0.000829655,1.52036e-07,1.24203e-53,3.8666e+15,1.95177e+16,2.48073e+12,2.33868e+16
9.25e+06,142693,9.95826e+06,4.7479e+26,3.88147e+23,2.19816e+11,0.166443,2.30081e+32,0.03468,0.000829665,1.52042e-07,1.24213e-53,3.86533e+15,1.95122e+16,2.47984e+12,2.338e+16
9.35e+06,142664,9.95735e+06,4.90297e+26,4.0069e+23,2.22191e+11,0.166473,2.2987e+32,0.03468,0.000829657,1.52037e-07,1.24204e-53,3.86406e+15,1.95065e+16,2.47894e+12,2.33731e+16
9.45e+06,142636,9.95644e+06,5.06137e+26,4.13495e+23,2.24566e+11,0.166503,2.29658e+32,0.03468,0.000829645,1.52028e-07,1.24188e-53,3.86277e+15,1.95008e+16,2.47803e+12,2.33661e+16
9.55e+06,142607,9.95552e+06,5.22312e+26,4.26563e+23,2.26941e+11,0.166533,2.29442e+32,0.03468,0.000829637,1.52023e-07,1.2418e-53,3.86147e+15,1.94951e+16,2.47711e+12,2.3359e+16
9.65e+06,142578,9.95458e+06,5.38826e+26,4.39897e+23,2.29315e+11,0.166564,2.29225e+32,0.03468,0.000829618,1.5201e-07,1.24155e-53,3.86015e+15,1.94892e+16,2.47618e+12,2.33519e+16
9.75e+06,142548,9.95364e+06,5.55682e+26,4.535e+23,2.3169e+11,0.166595,2.29006e+32,0.03468,0.000829585,1.5199e-07,1.24121e-53,3.85882e+15,1.94834e+16,2.47524e+12,2.33447e+16
9.85e+06,142518,9.95268e+06,5.72884e+26,4.67374e+23,2.34065e+11,0.166627,2.28785e+32,0.03468,0.000829596,1.51997e-07,1.24132e-53,3.85748e+15,1.94774e+16,2.47429e+12,2.33374e+16
9.95e+06,142488,9.95172e+06,5.90436e+26,4.81521e+23,2.3644e+11,0.166659,2.28562e+32,0.03468,0.000829587,1.51991e-07,1.24121e-53,3.85612e+15,1.94715e+16,2.47334e+12,2.33301e+16
1.005e+07,142458,9.95075e+06,6.0834e+26,4.95944e+23,2.38814e+11,0.166691,2.28337e+32,0.03468,0.000829574,1.51982e-07,1.24105e-53,3.85476e+15,1.94654e+16,2.47237e+12,2.33226e+16
1.015e+07,142427,9.94977e+06,6.26599e+26,5.10644e+23,2.41189e+11,0.166723,2.28109e+32,0.03468,0.000829565,1.51976e-07,1.24096e-53,3.85337e+15,1.94593e+16,2.47139e+12,2.33151e+16
1.025e+07,142397,9.94878e+06,6.45219e+26,5.25624e+23,2.43564e+11,0.166756,2.2788e+32,0.03468,0.000829545,1.51962e-07,1.2407e-53,3.85198e+15,1.94531e+16,2.47041e+12,2.33076e+16
1.035e+07,142365,9.94778e+06,6.64201e+26,5.40887e+23,2.45938e+11,0.166789,2.27649e+32,0.03468,0.000829509,1.51941e-07,1.24033e-53,3.85057e+15,1.94469e+16,2.46941e+12,2.33e+16
1.045e+07,142334,9.94676e+06,6.83549e+26,5.56435e+23,2.48313e+11,0.166823,2.27416e+32,0.03468,0.000829521,1.51948e-07,1.24045e-53,3.84915e+15,1.94406e+16,2.46841e+12,2.32922e+16
1.055e+07,142302,9.94574e+06,7.03266e+26,5.72269e+23,2.50687e+11,0.166856,2.2718e+32,0.03468,0.000829512,1.51942e-07,1.24033e-53,3.84772e+15,1.94343e+16,2.4674e+12,2.32845e+16
1.065e+07,142270,9.94471e+06,7.23357e+26,5.88393e+23,2.53061e+11,0.166891,2.26943e+32,0.03468,0.000829498,1.51932e-07,1.24016e-53,3.84627e+15,1.94279e+16,2.46638e+12,2.32766e+16
1.075e+07,142237,9.94367e+06,7.43823e+26,6.04807e+23,2.55436e+11,0.166925,2.26704e+32,0.03468,0.000829489,1.51926e-07,1.24006e-53,3.84481e+15,1.94214e+16,2.46535e+12,2.32687e+16
1.085e+07,142205,9.94263e+06,7.64669e+26,6.21516e+23,2.5781e+11,0.16696,2.26463e+32,0.03468,0.000829466,1.51911e-07,1.23978e-53,3.84334e+15,1.94149e+16,2.46431e+12,2.32607e+16
1.095e+07,142172,9.94157e+06,7.85899e+26,6.3852e+23,2.60184e+11,0.166995,2.2622e+32,0.03468,0.000829429,1.51889e-07,1.23939e-53,3.84185e+15,1.94083e+16,2.46326e+12,2.32527e+16
1.105e+07,142138,9.9405e+06,8.07514e+26,6.55822e+23,2.62559e+11,0.16703,2.25974e+32,0.03468,0.000829441,1.51896e-07,1.23951e-53,3.84035e+15,1.94017e+16,2.4622e+12,2.32445e+16
